3998.25138,0.00667
3997.28702,0.00674
3996.32265,0.00677
3995.35829,0.00676
3994.39393,0.00678
3993.42956,0.00690
3992.46520,0.00716
3991.50084,0.00756
3990.53647,0.00807
3989.57211,0.00858
3988.60775,0.00897
3987.64338,0.00908
3986.67902,0.00885
3985.71466,0.00836
3984.75029,0.00781
3983.78593,0.00745
3982.82156,0.00734
3981.85720,0.00742
3980.89284,0.00753
3979.92847,0.00758
3978.96411,0.00762
3977.99975,0.00779
3977.03538,0.00811
3976.07102,0.00849
3975.10666,0.00869
3974.14229,0.00859
3973.17793,0.00820
3972.21357,0.00770
3971.24920,0.00729
3970.28484,0.00711
3969.32047,0.00718
3968.35611,0.00740
3967.39175,0.00767
3966.42738,0.00794
3965.46302,0.00819
3964.49866,0.00841
3963.53429,0.00858
3962.56993,0.00869
3961.60557,0.00871
3960.64120,0.00865
3959.67684,0.00852
3958.71248,0.00834
3957.74811,0.00811
3956.78375,0.00790
3955.81938,0.00778
3954.85502,0.00786
3953.89066,0.00821
3952.92629,0.00883
3951.96193,0.00961
3950.99757,0.01035
3950.03320,0.01086
3949.06884,0.01108
3948.10448,0.01105
3947.14011,0.01095
3946.17575,0.01091
3945.21139,0.01092
3944.24702,0.01086
3943.28266,0.01058
3942.31829,0.01000
3941.35393,0.00920
3940.38957,0.00844
3939.42520,0.00797
3938.46084,0.00799
3937.49648,0.00851
3936.53211,0.00946
3935.56775,0.01064
3934.60339,0.01183
3933.63902,0.01273
3932.67466,0.01302
3931.71030,0.01253
3930.74593,0.01142
3929.78157,0.01023
3928.81720,0.00956
3927.85284,0.00979
3926.88848,0.01076
3925.92411,0.01187
3924.95975,0.01249
3923.99539,0.01234
3923.03102,0.01162
3922.06666,0.01082
3921.10230,0.01041
3920.13793,0.01052
3919.17357,0.01092
3918.20921,0.01119
3917.24484,0.01092
3916.28048,0.01002
3915.31611,0.00872
3914.35175,0.00743
3913.38739,0.00652
3912.42302,0.00612
3911.45866,0.00613
3910.49430,0.00639
3909.52993,0.00686
3908.56557,0.00776
3907.60121,0.00934
3906.63684,0.01170
3905.67248,0.01462
3904.70812,0.01753
3903.74375,0.01979
3902.77939,0.02092
3901.81502,0.02081
3900.85066,0.01960
3899.88630,0.01760
3898.92193,0.01514
3897.95757,0.01261
3896.99321,0.01044
3896.02884,0.00907
3895.06448,0.00884
3894.10012,0.00976
3893.13575,0.01136
3892.17139,0.01284
3891.20703,0.01352
3890.24266,0.01341
3889.27830,0.01323
3888.31393,0.01379
3887.34957,0.01524
3886.38521,0.01684
3885.42084,0.01758
3884.45648,0.01710
3883.49212,0.01595
3882.52775,0.01496
3881.56339,0.01435
3880.59903,0.01363
3879.63466,0.01222
3878.67030,0.01016
3877.70594,0.00820
3876.74157,0.00718
3875.77721,0.00755
3874.81284,0.00931
3873.84848,0.01220
3872.88412,0.01565
3871.91975,0.01870
3870.95539,0.02043
3869.99103,0.02023
3869.02666,0.01848
3868.06230,0.01634
3867.09794,0.01486
3866.13357,0.01439
3865.16921,0.01451
3864.20484,0.01453
3863.24048,0.01396
3862.27612,0.01275
3861.31175,0.01117
3860.34739,0.00968
3859.38303,0.00917
3858.41866,0.01059
3857.45430,0.01470
3856.48994,0.02164
3855.52557,0.03016
3854.56121,0.03750
3853.59685,0.04032
3852.63248,0.03706
3851.66812,0.02919
3850.70375,0.01990
3849.73939,0.01199
3848.77503,0.00694
3847.81066,0.00525
3846.84630,0.00634
3845.88194,0.00910
3844.91757,0.01235
3843.95321,0.01513
3842.98885,0.01706
3842.02448,0.01839
3841.06012,0.01963
3840.09576,0.02115
3839.13139,0.02277
3838.16703,0.02376
3837.20266,0.02338
3836.23830,0.02155
3835.27394,0.01891
3834.30957,0.01638
3833.34521,0.01447
3832.38085,0.01314
3831.41648,0.01210
3830.45212,0.01114
3829.48776,0.01031
3828.52339,0.00978
3827.55903,0.00964
3826.59467,0.01002
3825.63030,0.01117
3824.66594,0.01341
3823.70157,0.01670
3822.73721,0.02025
3821.77285,0.02280
3820.80848,0.02354
3819.84412,0.02284
3818.87976,0.02184
3817.91539,0.02130
3816.95103,0.02087
3815.98667,0.01946
3815.02230,0.01646
3814.05794,0.01245
3813.09358,0.00890
3812.12921,0.00710
3811.16485,0.00750
3810.20048,0.00969
3809.23612,0.01273
3808.27176,0.01549
3807.30739,0.01717
3806.34303,0.01775
3805.37867,0.01808
3804.41430,0.01907
3803.44994,0.02095
3802.48558,0.02285
3801.52121,0.02339
3800.55685,0.02184
3799.59249,0.01875
3798.62812,0.01544
3797.66376,0.01291
3796.69939,0.01127
3795.73503,0.01004
3794.77067,0.00882
3793.80630,0.00763
3792.84194,0.00673
3791.87758,0.00626
3790.91321,0.00604
3789.94885,0.00587
3788.98449,0.00575
3788.02012,0.00588
3787.05576,0.00637
3786.09140,0.00708
3785.12703,0.00774
3784.16267,0.00819
3783.19830,0.00852
3782.23394,0.00890
3781.26958,0.00935
3780.30521,0.00965
3779.34085,0.00950
3778.37649,0.00879
3777.41212,0.00772
3776.44776,0.00669
3775.48340,0.00609
3774.51903,0.00622
3773.55467,0.00717
3772.59031,0.00882
3771.62594,0.01081
3770.66158,0.01258
3769.69721,0.01368
3768.73285,0.01399
3767.76849,0.01371
3766.80412,0.01306
3765.83976,0.01218
3764.87540,0.01116
3763.91103,0.01027
3762.94667,0.00993
3761.98231,0.01045
3761.01794,0.01170
3760.05358,0.01308
3759.08922,0.01397
3758.12485,0.01416
3757.16049,0.01402
3756.19612,0.01431
3755.23176,0.01574
3754.26740,0.01869
3753.30303,0.02294
3752.33867,0.02751
3751.37431,0.03095
3750.40994,0.03211
3749.44558,0.03119
3748.48122,0.02966
3747.51685,0.02917
3746.55249,0.03030
3745.58813,0.03207
3744.62376,0.03246
3743.65940,0.03002
3742.69503,0.02528
3741.73067,0.02029
3740.76631,0.01707
3739.80194,0.01657
3738.83758,0.01856
3737.87322,0.02196
3736.90885,0.02531
3735.94449,0.02754
3734.98013,0.02815
3734.01576,0.02716
3733.05140,0.02488
3732.08704,0.02175
3731.12267,0.01839
3730.15831,0.01553
3729.19394,0.01372
3728.22958,0.01309
3727.26522,0.01324
3726.30085,0.01350
3725.33649,0.01347
3724.37213,0.01317
3723.40776,0.01286
3722.44340,0.01266
3721.47904,0.01243
3720.51467,0.01195
3719.55031,0.01120
3718.58595,0.01041
3717.62158,0.00997
3716.65722,0.01023
3715.69285,0.01142
3714.72849,0.01350
3713.76413,0.01612
3712.79976,0.01855
3711.83540,0.01996
3710.87104,0.01987
3709.90667,0.01838
3708.94231,0.01602
3707.97795,0.01351
3707.01358,0.01144
3706.04922,0.01027
3705.08486,0.01018
3704.12049,0.01098
3703.15613,0.01216
3702.19176,0.01308
3701.22740,0.01328
3700.26304,0.01269
3699.29867,0.01160
3698.33431,0.01041
3697.36995,0.00951
3696.40558,0.00925
3695.44122,0.00989
3694.47686,0.01149
3693.51249,0.01395
3692.54813,0.01704
3691.58377,0.02033
3690.61940,0.02314
3689.65504,0.02477
3688.69067,0.02458
3687.72631,0.02249
3686.76195,0.01903
3685.79758,0.01524
3684.83322,0.01207
3683.86886,0.01013
3682.90449,0.00950
3681.94013,0.01008
3680.97577,0.01158
3680.01140,0.01395
3679.04704,0.01735
3678.08267,0.02173
3677.11831,0.02626
3676.15395,0.02952
3675.18958,0.03042
3674.22522,0.02928
3673.26086,0.02749
3672.29649,0.02628
3671.33213,0.02580
3670.36777,0.02516
3669.40340,0.02330
3668.43904,0.01995
3667.47468,0.01579
3666.51031,0.01192
3665.54595,0.00914
3664.58158,0.00770
3663.61722,0.00741
3662.65286,0.00794
3661.68849,0.00900
3660.72413,0.01049
3659.75977,0.01227
3658.79540,0.01413
3657.83104,0.01552
3656.86668,0.01589
3655.90231,0.01525
3654.93795,0.01444
3653.97359,0.01470
3653.00922,0.01681
3652.04486,0.02062
3651.08049,0.02490
3650.11613,0.02795
3649.15177,0.02854
3648.18740,0.02652
3647.22304,0.02280
3646.25868,0.01855
3645.29431,0.01470
3644.32995,0.01179
3643.36559,0.00997
3642.40122,0.00919
3641.43686,0.00917
3640.47250,0.00954
3639.50813,0.01000
3638.54377,0.01044
3637.57940,0.01087
3636.61504,0.01136
3635.65068,0.01194
3634.68631,0.01264
3633.72195,0.01367
3632.75759,0.01538
3631.79322,0.01802
3630.82886,0.02124
3629.86450,0.02396
3628.90013,0.02480
3627.93577,0.02324
3626.97141,0.02001
3626.00704,0.01661
3625.04268,0.01427
3624.07831,0.01354
3623.11395,0.01430
3622.14959,0.01607
3621.18522,0.01817
3620.22086,0.01986
3619.25650,0.02057
3618.29213,0.02023
3617.32777,0.01923
3616.36341,0.01821
3615.39904,0.01763
3614.43468,0.01762
3613.47032,0.01808
3612.50595,0.01882
3611.54159,0.01964
3610.57722,0.02025
3609.61286,0.02031
3608.64850,0.01964
3607.68413,0.01835
3606.71977,0.01682
3605.75541,0.01548
3604.79104,0.01455
3603.82668,0.01399
3602.86232,0.01369
3601.89795,0.01358
3600.93359,0.01373
3599.96923,0.01420
3599.00486,0.01494
3598.04050,0.01571
3597.07613,0.01620
3596.11177,0.01623
3595.14741,0.01583
3594.18304,0.01533
3593.21868,0.01512
3592.25432,0.01550
3591.28995,0.01653
3590.32559,0.01797
3589.36123,0.01938
3588.39686,0.02024
3587.43250,0.02020
3586.46814,0.01933
3585.50377,0.01803
3584.53941,0.01680
3583.57504,0.01598
3582.61068,0.01562
3581.64632,0.01558
3580.68195,0.01564
3579.71759,0.01564
3578.75323,0.01547
3577.78886,0.01509
3576.82450,0.01451
3575.86014,0.01386
3574.89577,0.01333
3573.93141,0.01307
3572.96705,0.01323
3572.00268,0.01385
3571.03832,0.01493
3570.07395,0.01636
3569.10959,0.01788
3568.14523,0.01912
3567.18086,0.01968
3566.21650,0.01939
3565.25214,0.01841
3564.28777,0.01712
3563.32341,0.01593
3562.35905,0.01506
3561.39468,0.01450
3560.43032,0.01417
3559.46596,0.01394
3558.50159,0.01378
3557.53723,0.01372
3556.57286,0.01379
3555.60850,0.01393
3554.64414,0.01408
3553.67977,0.01416
3552.71541,0.01417
3551.75105,0.01421
3550.78668,0.01440
3549.82232,0.01480
3548.85796,0.01534
3547.89359,0.01580
3546.92923,0.01594
3545.96487,0.01560
3545.00050,0.01480
3544.03614,0.01374
3543.07177,0.01275
3542.10741,0.01213
3541.14305,0.01202
3540.17868,0.01237
3539.21432,0.01294
3538.24996,0.01342
3537.28559,0.01359
3536.32123,0.01343
3535.35687,0.01307
3534.39250,0.01275
3533.42814,0.01264
3532.46378,0.01285
3531.49941,0.01333
3530.53505,0.01396
3529.57068,0.01457
3528.60632,0.01508
3527.64196,0.01545
3526.67759,0.01567
3525.71323,0.01572
3524.74887,0.01550
3523.78450,0.01499
3522.82014,0.01430
3521.85578,0.01365
3520.89141,0.01324
3519.92705,0.01315
3518.96269,0.01328
3517.99832,0.01347
3517.03396,0.01357
3516.06959,0.01353
3515.10523,0.01344
3514.14087,0.01344
3513.17650,0.01363
3512.21214,0.01403
3511.24778,0.01451
3510.28341,0.01486
3509.31905,0.01493
3508.35469,0.01477
3507.39032,0.01456
3506.42596,0.01450
3505.46160,0.01467
3504.49723,0.01497
3503.53287,0.01520
3502.56850,0.01526
3501.60414,0.01519
3500.63978,0.01505
3499.67541,0.01491
3498.71105,0.01472
3497.74669,0.01443
3496.78232,0.01400
3495.81796,0.01350
3494.85360,0.01306
3493.88923,0.01278
3492.92487,0.01274
3491.96051,0.01295
3490.99614,0.01336
3490.03178,0.01385
3489.06741,0.01424
3488.10305,0.01442
3487.13869,0.01443
3486.17432,0.01439
3485.20996,0.01445
3484.24560,0.01464
3483.28123,0.01485
3482.31687,0.01489
3481.35251,0.01466
3480.38814,0.01420
3479.42378,0.01372
3478.45941,0.01338
3477.49505,0.01331
3476.53069,0.01348
3475.56632,0.01380
3474.60196,0.01414
3473.63760,0.01438
3472.67323,0.01444
3471.70887,0.01426
3470.74451,0.01389
3469.78014,0.01344
3468.81578,0.01311
3467.85142,0.01302
3466.88705,0.01319
3465.92269,0.01353
3464.95832,0.01387
3463.99396,0.01411
3463.02960,0.01425
3462.06523,0.01433
3461.10087,0.01440
3460.13651,0.01443
3459.17214,0.01437
3458.20778,0.01421
3457.24342,0.01399
3456.27905,0.01379
3455.31469,0.01369
3454.35033,0.01367
3453.38596,0.01367
3452.42160,0.01362
3451.45723,0.01353
3450.49287,0.01346
3449.52851,0.01346
3448.56414,0.01357
3447.59978,0.01377
3446.63542,0.01402
3445.67105,0.01431
3444.70669,0.01462
3443.74233,0.01491
3442.77796,0.01511
3441.81360,0.01512
3440.84924,0.01495
3439.88487,0.01466
3438.92051,0.01442
3437.95614,0.01432
3436.99178,0.01438
3436.02742,0.01455
3435.06305,0.01472
3434.09869,0.01484
3433.13433,0.01492
3432.16996,0.01500
3431.20560,0.01513
3430.24124,0.01532
3429.27687,0.01550
3428.31251,0.01560
3427.34815,0.01557
3426.38378,0.01544
3425.41942,0.01526
3424.45505,0.01511
3423.49069,0.01499
3422.52633,0.01488
3421.56196,0.01473
3420.59760,0.01455
3419.63324,0.01440
3418.66887,0.01434
3417.70451,0.01437
3416.74015,0.01444
3415.77578,0.01444
3414.81142,0.01429
3413.84706,0.01400
3412.88269,0.01367
3411.91833,0.01344
3410.95396,0.01340
3409.98960,0.01354
3409.02524,0.01380
3408.06087,0.01407
3407.09651,0.01430
3406.13215,0.01442
3405.16778,0.01444
3404.20342,0.01434
3403.23906,0.01419
3402.27469,0.01407
3401.31033,0.01410
3400.34597,0.01434
3399.38160,0.01475
3398.41724,0.01520
3397.45287,0.01552
3396.48851,0.01561
3395.52415,0.01547
3394.55978,0.01521
3393.59542,0.01493
3392.63106,0.01474
3391.66669,0.01465
3390.70233,0.01461
3389.73797,0.01460
3388.77360,0.01457
3387.80924,0.01451
3386.84488,0.01439
3385.88051,0.01420
3384.91615,0.01397
3383.95178,0.01376
3382.98742,0.01365
3382.02306,0.01370
3381.05869,0.01394
3380.09433,0.01429
3379.12997,0.01463
3378.16560,0.01483
3377.20124,0.01485
3376.23688,0.01474
3375.27251,0.01463
3374.30815,0.01465
3373.34379,0.01484
3372.37942,0.01511
3371.41506,0.01531
3370.45069,0.01538
3369.48633,0.01530
3368.52197,0.01516
3367.55760,0.01502
3366.59324,0.01487
3365.62888,0.01469
3364.66451,0.01449
3363.70015,0.01433
3362.73579,0.01425
3361.77142,0.01426
3360.80706,0.01431
3359.84270,0.01437
3358.87833,0.01447
3357.91397,0.01462
3356.94960,0.01480
3355.98524,0.01494
3355.02088,0.01496
3354.05651,0.01486
3353.09215,0.01470
3352.12779,0.01456
3351.16342,0.01449
3350.19906,0.01449
3349.23470,0.01450
3348.27033,0.01448
3347.30597,0.01441
3346.34161,0.01434
3345.37724,0.01432
3344.41288,0.01439
3343.44851,0.01450
3342.48415,0.01458
3341.51979,0.01453
3340.55542,0.01435
3339.59106,0.01412
3338.62670,0.01395
3337.66233,0.01389
3336.69797,0.01395
3335.73361,0.01406
3334.76924,0.01416
3333.80488,0.01425
3332.84052,0.01435
3331.87615,0.01448
3330.91179,0.01463
3329.94742,0.01474
3328.98306,0.01476
3328.01870,0.01474
3327.05433,0.01474
3326.08997,0.01485
3325.12561,0.01507
3324.16124,0.01532
3323.19688,0.01548
3322.23252,0.01547
3321.26815,0.01529
3320.30379,0.01500
3319.33943,0.01468
3318.37506,0.01444
3317.41070,0.01436
3316.44633,0.01447
3315.48197,0.01470
3314.51761,0.01495
3313.55324,0.01506
3312.58888,0.01500
3311.62452,0.01481
3310.66015,0.01464
3309.69579,0.01460
3308.73143,0.01473
3307.76706,0.01492
3306.80270,0.01510
3305.83834,0.01523
3304.87397,0.01535
3303.90961,0.01550
3302.94524,0.01562
3301.98088,0.01561
3301.01652,0.01537
3300.05215,0.01494
3299.08779,0.01448
3298.12343,0.01414
3297.15906,0.01402
3296.19470,0.01411
3295.23034,0.01431
3294.26597,0.01452
3293.30161,0.01462
3292.33724,0.01457
3291.37288,0.01442
3290.40852,0.01425
3289.44415,0.01415
3288.47979,0.01417
3287.51543,0.01426
3286.55106,0.01433
3285.58670,0.01432
3284.62234,0.01424
3283.65797,0.01416
3282.69361,0.01419
3281.72925,0.01432
3280.76488,0.01451
3279.80052,0.01462
3278.83615,0.01459
3277.87179,0.01440
3276.90743,0.01416
3275.94306,0.01396
3274.97870,0.01384
3274.01434,0.01378
3273.04997,0.01374
3272.08561,0.01372
3271.12125,0.01376
3270.15688,0.01388
3269.19252,0.01406
3268.22816,0.01423
3267.26379,0.01436
3266.29943,0.01445
3265.33506,0.01453
3264.37070,0.01463
3263.40634,0.01473
3262.44197,0.01483
3261.47761,0.01492
3260.51325,0.01503
3259.54888,0.01516
3258.58452,0.01528
3257.62016,0.01535
3256.65579,0.01532
3255.69143,0.01519
3254.72707,0.01501
3253.76270,0.01481
3252.79834,0.01464
3251.83397,0.01449
3250.86961,0.01439
3249.90525,0.01431
3248.94088,0.01430
3247.97652,0.01436
3247.01216,0.01449
3246.04779,0.01465
3245.08343,0.01474
3244.11907,0.01468
3243.15470,0.01446
3242.19034,0.01415
3241.22598,0.01391
3240.26161,0.01386
3239.29725,0.01404
3238.33288,0.01437
3237.36852,0.01470
3236.40416,0.01490
3235.43979,0.01495
3234.47543,0.01489
3233.51107,0.01481
3232.54670,0.01475
3231.58234,0.01471
3230.61798,0.01471
3229.65361,0.01473
3228.68925,0.01476
3227.72489,0.01477
3226.76052,0.01469
3225.79616,0.01449
3224.83179,0.01424
3223.86743,0.01404
3222.90307,0.01399
3221.93870,0.01407
3220.97434,0.01417
3220.00998,0.01419
3219.04561,0.01411
3218.08125,0.01400
3217.11689,0.01393
3216.15252,0.01393
3215.18816,0.01399
3214.22380,0.01411
3213.25943,0.01430
3212.29507,0.01455
3211.33070,0.01478
3210.36634,0.01489
3209.40198,0.01479
3208.43761,0.01449
3207.47325,0.01409
3206.50889,0.01371
3205.54452,0.01343
3204.58016,0.01327
3203.61580,0.01321
3202.65143,0.01324
3201.68707,0.01335
3200.72271,0.01350
3199.75834,0.01365
3198.79398,0.01374
3197.82961,0.01369
3196.86525,0.01350
3195.90089,0.01320
3194.93652,0.01288
3193.97216,0.01263
3193.00780,0.01253
3192.04343,0.01259
3191.07907,0.01281
3190.11471,0.01313
3189.15034,0.01345
3188.18598,0.01368
3187.22162,0.01378
3186.25725,0.01379
3185.29289,0.01375
3184.32852,0.01373
3183.36416,0.01374
3182.39980,0.01377
3181.43543,0.01379
3180.47107,0.01377
3179.50671,0.01369
3178.54234,0.01355
3177.57798,0.01336
3176.61362,0.01318
3175.64925,0.01308
3174.68489,0.01312
3173.72053,0.01328
3172.75616,0.01350
3171.79180,0.01368
3170.82743,0.01373
3169.86307,0.01363
3168.89871,0.01341
3167.93434,0.01319
3166.96998,0.01305
3166.00562,0.01303
3165.04125,0.01312
3164.07689,0.01321
3163.11253,0.01322
3162.14816,0.01311
3161.18380,0.01292
3160.21944,0.01273
3159.25507,0.01263
3158.29071,0.01265
3157.32634,0.01278
3156.36198,0.01293
3155.39762,0.01303
3154.43325,0.01302
3153.46889,0.01290
3152.50453,0.01273
3151.54016,0.01254
3150.57580,0.01237
3149.61144,0.01219
3148.64707,0.01194
3147.68271,0.01166
3146.71835,0.01143
3145.75398,0.01139
3144.78962,0.01163
3143.82525,0.01208
3142.86089,0.01259
3141.89653,0.01301
3140.93216,0.01322
3139.96780,0.01324
3139.00344,0.01311
3138.03907,0.01292
3137.07471,0.01273
3136.11035,0.01258
3135.14598,0.01248
3134.18162,0.01241
3133.21726,0.01235
3132.25289,0.01227
3131.28853,0.01219
3130.32416,0.01212
3129.35980,0.01209
3128.39544,0.01211
3127.43107,0.01219
3126.46671,0.01233
3125.50235,0.01250
3124.53798,0.01266
3123.57362,0.01274
3122.60926,0.01273
3121.64489,0.01263
3120.68053,0.01249
3119.71617,0.01233
3118.75180,0.01215
3117.78744,0.01198
3116.82307,0.01185
3115.85871,0.01185
3114.89435,0.01200
3113.92998,0.01228
3112.96562,0.01261
3112.00126,0.01286
3111.03689,0.01297
3110.07253,0.01291
3109.10817,0.01274
3108.14380,0.01250
3107.17944,0.01227
3106.21508,0.01210
3105.25071,0.01205
3104.28635,0.01215
3103.32198,0.01240
3102.35762,0.01271
3101.39326,0.01296
3100.42889,0.01307
3099.46453,0.01300
3098.50017,0.01281
3097.53580,0.01259
3096.57144,0.01243
3095.60708,0.01236
3094.64271,0.01238
3093.67835,0.01243
3092.71398,0.01245
3091.74962,0.01240
3090.78526,0.01228
3089.82089,0.01215
3088.85653,0.01205
3087.89217,0.01203
3086.92780,0.01209
3085.96344,0.01218
3084.99908,0.01225
3084.03471,0.01224
3083.07035,0.01212
3082.10599,0.01191
3081.14162,0.01166
3080.17726,0.01146
3079.21289,0.01138
3078.24853,0.01148
3077.28417,0.01171
3076.31980,0.01200
3075.35544,0.01222
3074.39108,0.01230
3073.42671,0.01227
3072.46235,0.01220
3071.49799,0.01220
3070.53362,0.01229
3069.56926,0.01243
3068.60490,0.01251
3067.64053,0.01246
3066.67617,0.01228
3065.71180,0.01205
3064.74744,0.01189
3063.78308,0.01184
3062.81871,0.01191
3061.85435,0.01202
3060.88999,0.01211
3059.92562,0.01217
3058.96126,0.01224
3057.99690,0.01235
3057.03253,0.01252
3056.06817,0.01267
3055.10381,0.01275
3054.13944,0.01273
3053.17508,0.01265
3052.21071,0.01256
3051.24635,0.01249
3050.28199,0.01245
3049.31762,0.01241
3048.35326,0.01238
3047.38890,0.01239
3046.42453,0.01247
3045.46017,0.01259
3044.49581,0.01269
3043.53144,0.01273
3042.56708,0.01268
3041.60272,0.01257
3040.63835,0.01250
3039.67399,0.01253
3038.70962,0.01270
3037.74526,0.01297
3036.78090,0.01328
3035.81653,0.01353
3034.85217,0.01363
3033.88781,0.01355
3032.92344,0.01332
3031.95908,0.01304
3030.99472,0.01285
3030.03035,0.01279
3029.06599,0.01285
3028.10163,0.01291
3027.13726,0.01289
3026.17290,0.01277
3025.20853,0.01261
3024.24417,0.01249
3023.27981,0.01248
3022.31544,0.01259
3021.35108,0.01282
3020.38672,0.01315
3019.42235,0.01351
3018.45799,0.01383
3017.49363,0.01406
3016.52926,0.01418
3015.56490,0.01424
3014.60054,0.01431
3013.63617,0.01443
3012.67181,0.01462
3011.70744,0.01486
3010.74308,0.01510
3009.77872,0.01530
3008.81435,0.01540
3007.84999,0.01534
3006.88563,0.01517
3005.92126,0.01501
3004.95690,0.01500
3003.99254,0.01524
3003.02817,0.01571
3002.06381,0.01628
3001.09945,0.01683
3000.13508,0.01726
2999.17072,0.01759
2998.20635,0.01789
2997.24199,0.01825
2996.27763,0.01872
2995.31326,0.01935
2994.34890,0.02016
2993.38454,0.02112
2992.42017,0.02215
2991.45581,0.02318
2990.49145,0.02414
2989.52708,0.02505
2988.56272,0.02595
2987.59836,0.02683
2986.63399,0.02759
2985.66963,0.02810
2984.70526,0.02829
2983.74090,0.02824
2982.77654,0.02813
2981.81217,0.02805
2980.84781,0.02799
2979.88345,0.02780
2978.91908,0.02739
2977.95472,0.02685
2976.99036,0.02637
2976.02599,0.02614
2975.06163,0.02616
2974.09727,0.02626
2973.13290,0.02623
2972.16854,0.02596
2971.20417,0.02554
2970.23981,0.02515
2969.27545,0.02494
2968.31108,0.02492
2967.34672,0.02498
2966.38236,0.02500
2965.41799,0.02494
2964.45363,0.02487
2963.48927,0.02486
2962.52490,0.02490
2961.56054,0.02493
2960.59618,0.02487
2959.63181,0.02475
2958.66745,0.02468
2957.70308,0.02474
2956.73872,0.02495
2955.77436,0.02523
2954.80999,0.02545
2953.84563,0.02554
2952.88127,0.02547
2951.91690,0.02529
2950.95254,0.02503
2949.98818,0.02477
2949.02381,0.02458
2948.05945,0.02451
2947.09509,0.02456
2946.13072,0.02469
2945.16636,0.02484
2944.20199,0.02500
2943.23763,0.02514
2942.27327,0.02525
2941.30890,0.02529
2940.34454,0.02518
2939.38018,0.02487
2938.41581,0.02438
2937.45145,0.02384
2936.48709,0.02343
2935.52272,0.02331
2934.55836,0.02354
2933.59400,0.02400
2932.62963,0.02453
2931.66527,0.02494
2930.70090,0.02514
2929.73654,0.02511
2928.77218,0.02492
2927.80781,0.02467
2926.84345,0.02444
2925.87909,0.02430
2924.91472,0.02429
2923.95036,0.02438
2922.98600,0.02448
2922.02163,0.02454
2921.05727,0.02448
2920.09291,0.02432
2919.12854,0.02410
2918.16418,0.02389
2917.19981,0.02375
2916.23545,0.02371
2915.27109,0.02372
2914.30672,0.02368
2913.34236,0.02353
2912.37800,0.02322
2911.41363,0.02282
2910.44927,0.02247
2909.48491,0.02228
2908.52054,0.02232
2907.55618,0.02256
2906.59181,0.02294
2905.62745,0.02334
2904.66309,0.02370
2903.69872,0.02394
2902.73436,0.02402
2901.77000,0.02394
2900.80563,0.02375
2899.84127,0.02358
2898.87691,0.02354
2897.91254,0.02369
2896.94818,0.02400
2895.98382,0.02434
2895.01945,0.02457
2894.05509,0.02463
2893.09072,0.02459
2892.12636,0.02459
2891.16200,0.02477
2890.19763,0.02517
2889.23327,0.02570
2888.26891,0.02625
2887.30454,0.02677
2886.34018,0.02732
2885.37582,0.02797
2884.41145,0.02876
2883.44709,0.02960
2882.48273,0.03042
2881.51836,0.03116
2880.55400,0.03183
2879.58963,0.03251
2878.62527,0.03319
2877.66091,0.03378
2876.69654,0.03417
2875.73218,0.03427
2874.76782,0.03413
2873.80345,0.03382
2872.83909,0.03348
2871.87473,0.03320
2870.91036,0.03300
2869.94600,0.03290
2868.98164,0.03284
2868.01727,0.03275
2867.05291,0.03257
2866.08854,0.03228
2865.12418,0.03189
2864.15982,0.03143
2863.19545,0.03094
2862.23109,0.03046
2861.26673,0.03005
2860.30236,0.02974
2859.33800,0.02954
2858.37364,0.02935
2857.40927,0.02910
2856.44491,0.02877
2855.48055,0.02842
2854.51618,0.02813
2853.55182,0.02790
2852.58745,0.02766
2851.62309,0.02733
2850.65873,0.02687
2849.69436,0.02633
2848.73000,0.02580
2847.76564,0.02531
2846.80127,0.02486
2845.83691,0.02443
2844.87255,0.02399
2843.90818,0.02359
2842.94382,0.02324
2841.97946,0.02291
2841.01509,0.02256
2840.05073,0.02210
2839.08636,0.02147
2838.12200,0.02067
2837.15764,0.01978
2836.19327,0.01887
2835.22891,0.01806
2834.26455,0.01741
2833.30018,0.01695
2832.33582,0.01665
2831.37146,0.01646
2830.40709,0.01629
2829.44273,0.01605
2828.47837,0.01573
2827.51400,0.01534
2826.54964,0.01495
2825.58527,0.01460
2824.62091,0.01431
2823.65655,0.01405
2822.69218,0.01380
2821.72782,0.01353
2820.76346,0.01326
2819.79909,0.01298
2818.83473,0.01272
2817.87037,0.01250
2816.90600,0.01236
2815.94164,0.01229
2814.97728,0.01227
2814.01291,0.01228
2813.04855,0.01233
2812.08418,0.01241
2811.11982,0.01251
2810.15546,0.01260
2809.19109,0.01261
2808.22673,0.01253
2807.26237,0.01237
2806.29800,0.01220
2805.33364,0.01208
2804.36928,0.01203
2803.40491,0.01203
2802.44055,0.01202
2801.47619,0.01198
2800.51182,0.01191
2799.54746,0.01184
2798.58309,0.01180
2797.61873,0.01181
2796.65437,0.01184
2795.69000,0.01184
2794.72564,0.01176
2793.76128,0.01156
2792.79691,0.01124
2791.83255,0.01086
2790.86819,0.01053
2789.90382,0.01030
2788.93946,0.01021
2787.97510,0.01020
2787.01073,0.01023
2786.04637,0.01023
2785.08200,0.01020
2784.11764,0.01017
2783.15328,0.01016
2782.18891,0.01018
2781.22455,0.01023
2780.26019,0.01028
2779.29582,0.01030
2778.33146,0.01028
2777.36710,0.01021
2776.40273,0.01010
2775.43837,0.00994
2774.47401,0.00972
2773.50964,0.00949
2772.54528,0.00929
2771.58091,0.00918
2770.61655,0.00916
2769.65219,0.00922
2768.68782,0.00934
2767.72346,0.00953
2766.75910,0.00979
2765.79473,0.01009
2764.83037,0.01034
2763.86601,0.01043
2762.90164,0.01036
2761.93728,0.01019
2760.97292,0.01004
2760.00855,0.00998
2759.04419,0.00995
2758.07982,0.00989
2757.11546,0.00976
2756.15110,0.00959
2755.18673,0.00944
2754.22237,0.00934
2753.25801,0.00925
2752.29364,0.00915
2751.32928,0.00903
2750.36492,0.00894
2749.40055,0.00889
2748.43619,0.00888
2747.47183,0.00889
2746.50746,0.00887
2745.54310,0.00881
2744.57873,0.00874
2743.61437,0.00865
2742.65001,0.00856
2741.68564,0.00849
2740.72128,0.00845
2739.75692,0.00844
2738.79255,0.00844
2737.82819,0.00845
2736.86383,0.00844
2735.89946,0.00844
2734.93510,0.00843
2733.97074,0.00843
2733.00637,0.00844
2732.04201,0.00845
2731.07764,0.00850
2730.11328,0.00857
2729.14892,0.00866
2728.18455,0.00870
2727.22019,0.00867
2726.25583,0.00858
2725.29146,0.00848
2724.32710,0.00841
2723.36274,0.00841
2722.39837,0.00846
2721.43401,0.00854
2720.46965,0.00861
2719.50528,0.00867
2718.54092,0.00871
2717.57655,0.00875
2716.61219,0.00881
2715.64783,0.00889
2714.68346,0.00898
2713.71910,0.00900
2712.75474,0.00893
2711.79037,0.00875
2710.82601,0.00853
2709.86165,0.00837
2708.89728,0.00830
2707.93292,0.00833
2706.96855,0.00837
2706.00419,0.00836
2705.03983,0.00826
2704.07546,0.00807
2703.11110,0.00788
2702.14674,0.00776
2701.18237,0.00778
2700.21801,0.00798
2699.25365,0.00829
2698.28928,0.00864
2697.32492,0.00891
2696.36056,0.00902
2695.39619,0.00896
2694.43183,0.00875
2693.46746,0.00847
2692.50310,0.00821
2691.53874,0.00807
2690.57437,0.00807
2689.61001,0.00820
2688.64565,0.00837
2687.68128,0.00852
2686.71692,0.00862
2685.75256,0.00867
2684.78819,0.00871
2683.82383,0.00875
2682.85947,0.00882
2681.89510,0.00889
2680.93074,0.00896
2679.96637,0.00899
2679.00201,0.00897
2678.03765,0.00890
2677.07328,0.00884
2676.10892,0.00881
2675.14456,0.00885
2674.18019,0.00890
2673.21583,0.00893
2672.25147,0.00890
2671.28710,0.00882
2670.32274,0.00872
2669.35838,0.00863
2668.39401,0.00858
2667.42965,0.00858
2666.46528,0.00864
2665.50092,0.00876
2664.53656,0.00892
2663.57219,0.00907
2662.60783,0.00915
2661.64347,0.00913
2660.67910,0.00903
2659.71474,0.00889
2658.75038,0.00876
2657.78601,0.00870
2656.82165,0.00872
2655.85729,0.00882
2654.89292,0.00898
2653.92856,0.00917
2652.96419,0.00934
2651.99983,0.00945
2651.03547,0.00946
2650.07110,0.00939
2649.10674,0.00930
2648.14238,0.00928
2647.17801,0.00938
2646.21365,0.00958
2645.24929,0.00982
2644.28492,0.01004
2643.32056,0.01021
2642.35620,0.01035
2641.39183,0.01050
2640.42747,0.01067
2639.46310,0.01090
2638.49874,0.01118
2637.53438,0.01149
2636.57001,0.01181
2635.60565,0.01214
2634.64129,0.01246
2633.67692,0.01276
2632.71256,0.01304
2631.74820,0.01329
2630.78383,0.01351
2629.81947,0.01373
2628.85511,0.01398
2627.89074,0.01426
2626.92638,0.01458
2625.96201,0.01494
2624.99765,0.01535
2624.03329,0.01580
2623.06892,0.01624
2622.10456,0.01664
2621.14020,0.01699
2620.17583,0.01731
2619.21147,0.01767
2618.24711,0.01808
2617.28274,0.01853
2616.31838,0.01896
2615.35402,0.01932
2614.38965,0.01961
2613.42529,0.01986
2612.46092,0.02015
2611.49656,0.02049
2610.53220,0.02091
2609.56783,0.02137
2608.60347,0.02185
2607.63911,0.02231
2606.67474,0.02273
2605.71038,0.02306
2604.74602,0.02331
2603.78165,0.02346
2602.81729,0.02355
2601.85293,0.02360
2600.88856,0.02362
2599.92420,0.02362
2598.95983,0.02362
2597.99547,0.02362
2597.03111,0.02367
2596.06674,0.02381
2595.10238,0.02402
2594.13802,0.02426
2593.17365,0.02446
2592.20929,0.02457
2591.24493,0.02458
2590.28056,0.02454
2589.31620,0.02450
2588.35184,0.02450
2587.38747,0.02456
2586.42311,0.02465
2585.45874,0.02475
2584.49438,0.02483
2583.53002,0.02489
2582.56565,0.02492
2581.60129,0.02494
2580.63693,0.02497
2579.67256,0.02502
2578.70820,0.02507
2577.74384,0.02511
2576.77947,0.02513
2575.81511,0.02515
2574.85075,0.02520
2573.88638,0.02528
2572.92202,0.02537
2571.95765,0.02545
2570.99329,0.02551
2570.02893,0.02559
2569.06456,0.02572
2568.10020,0.02592
2567.13584,0.02617
2566.17147,0.02641
2565.20711,0.02658
2564.24275,0.02662
2563.27838,0.02656
2562.31402,0.02645
2561.34966,0.02634
2560.38529,0.02627
2559.42093,0.02626
2558.45656,0.02631
2557.49220,0.02640
2556.52784,0.02652
2555.56347,0.02665
2554.59911,0.02678
2553.63475,0.02690
2552.67038,0.02699
2551.70602,0.02704
2550.74166,0.02710
2549.77729,0.02720
2548.81293,0.02738
2547.84857,0.02765
2546.88420,0.02798
2545.91984,0.02832
2544.95547,0.02863
2543.99111,0.02886
2543.02675,0.02901
2542.06238,0.02911
2541.09802,0.02926
2540.13366,0.02955
2539.16929,0.03005
2538.20493,0.03076
2537.24057,0.03158
2536.27620,0.03244
2535.31184,0.03327
2534.34748,0.03410
2533.38311,0.03497
2532.41875,0.03591
2531.45438,0.03690
2530.49002,0.03791
2529.52566,0.03889
2528.56129,0.03984
2527.59693,0.04072
2526.63257,0.04155
2525.66820,0.04233
2524.70384,0.04312
2523.73948,0.04394
2522.77511,0.04477
2521.81075,0.04557
2520.84639,0.04622
2519.88202,0.04670
2518.91766,0.04701
2517.95329,0.04722
2516.98893,0.04739
2516.02457,0.04756
2515.06020,0.04775
2514.09584,0.04793
2513.13148,0.04810
2512.16711,0.04819
2511.20275,0.04814
2510.23839,0.04791
2509.27402,0.04751
2508.30966,0.04699
2507.34529,0.04641
2506.38093,0.04580
2505.41657,0.04514
2504.45220,0.04438
2503.48784,0.04349
2502.52348,0.04247
2501.55911,0.04134
2500.59475,0.04016
2499.63039,0.03897
2498.66602,0.03778
2497.70166,0.03657
2496.73730,0.03531
2495.77293,0.03398
2494.80857,0.03259
2493.84420,0.03120
2492.87984,0.02992
2491.91548,0.02881
2490.95111,0.02791
2489.98675,0.02717
2489.02239,0.02653
2488.05802,0.02591
2487.09366,0.02528
2486.12930,0.02464
2485.16493,0.02398
2484.20057,0.02333
2483.23621,0.02268
2482.27184,0.02205
2481.30748,0.02144
2480.34311,0.02086
2479.37875,0.02029
2478.41439,0.01972
2477.45002,0.01917
2476.48566,0.01865
2475.52130,0.01818
2474.55693,0.01775
2473.59257,0.01736
2472.62821,0.01698
2471.66384,0.01660
2470.69948,0.01620
2469.73512,0.01580
2468.77075,0.01539
2467.80639,0.01499
2466.84202,0.01461
2465.87766,0.01425
2464.91330,0.01392
2463.94893,0.01363
2462.98457,0.01338
2462.02021,0.01315
2461.05584,0.01294
2460.09148,0.01272
2459.12712,0.01251
2458.16275,0.01230
2457.19839,0.01211
2456.23403,0.01196
2455.26966,0.01184
2454.30530,0.01177
2453.34093,0.01172
2452.37657,0.01171
2451.41221,0.01169
2450.44784,0.01167
2449.48348,0.01162
2448.51912,0.01154
2447.55475,0.01141
2446.59039,0.01126
2445.62603,0.01108
2444.66166,0.01088
2443.69730,0.01068
2442.73294,0.01053
2441.76857,0.01044
2440.80421,0.01044
2439.83984,0.01050
2438.87548,0.01058
2437.91112,0.01066
2436.94675,0.01068
2435.98239,0.01063
2435.01803,0.01051
2434.05366,0.01032
2433.08930,0.01011
2432.12494,0.00992
2431.16057,0.00978
2430.19621,0.00971
2429.23185,0.00970
2428.26748,0.00971
2427.30312,0.00971
2426.33875,0.00965
2425.37439,0.00952
2424.41003,0.00935
2423.44566,0.00919
2422.48130,0.00910
2421.51694,0.00911
2420.55257,0.00920
2419.58821,0.00931
2418.62385,0.00938
2417.65948,0.00937
2416.69512,0.00929
2415.73076,0.00915
2414.76639,0.00900
2413.80203,0.00884
2412.83766,0.00866
2411.87330,0.00845
2410.90894,0.00823
2409.94457,0.00803
2408.98021,0.00790
2408.01585,0.00790
2407.05148,0.00801
2406.08712,0.00817
2405.12276,0.00832
2404.15839,0.00839
2403.19403,0.00838
2402.22967,0.00834
2401.26530,0.00830
2400.30094,0.00828
2399.33657,0.00826
2398.37221,0.00822
2397.40785,0.00816
2396.44348,0.00810
2395.47912,0.00805
2394.51476,0.00803
2393.55039,0.00807
2392.58603,0.00815
2391.62167,0.00826
2390.65730,0.00833
2389.69294,0.00831
2388.72858,0.00820
2387.76421,0.00802
2386.79985,0.00787
2385.83548,0.00782
2384.87112,0.00794
2383.90676,0.00820
2382.94239,0.00856
2381.97803,0.00895
2381.01367,0.00931
2380.04930,0.00965
2379.08494,0.01001
2378.12058,0.01050
2377.15621,0.01117
2376.19185,0.01204
2375.22749,0.01301
2374.26312,0.01398
2373.29876,0.01487
2372.33439,0.01563
2371.37003,0.01625
2370.40567,0.01680
2369.44130,0.01738
2368.47694,0.01806
2367.51258,0.01887
2366.54821,0.01975
2365.58385,0.02056
2364.61949,0.02119
2363.65512,0.02159
2362.69076,0.02179
2361.72640,0.02186
2360.76203,0.02186
2359.79767,0.02181
2358.83330,0.02171
2357.86894,0.02156
2356.90458,0.02134
2355.94021,0.02104
2354.97585,0.02061
2354.01149,0.02001
2353.04712,0.01918
2352.08276,0.01817
2351.11840,0.01711
2350.15403,0.01620
2349.18967,0.01566
2348.22531,0.01561
2347.26094,0.01610
2346.29658,0.01698
2345.33221,0.01802
2344.36785,0.01894
2343.40349,0.01953
2342.43912,0.01973
2341.47476,0.01958
2340.51040,0.01919
2339.54603,0.01870
2338.58167,0.01827
2337.61731,0.01799
2336.65294,0.01790
2335.68858,0.01795
2334.72422,0.01801
2333.75985,0.01797
2332.79549,0.01778
2331.83112,0.01748
2330.86676,0.01715
2329.90240,0.01686
2328.93803,0.01661
2327.97367,0.01635
2327.00931,0.01604
2326.04494,0.01565
2325.08058,0.01521
2324.11622,0.01479
2323.15185,0.01443
2322.18749,0.01418
2321.22312,0.01400
2320.25876,0.01380
2319.29440,0.01349
2318.33003,0.01302
2317.36567,0.01239
2316.40131,0.01172
2315.43694,0.01115
2314.47258,0.01077
2313.50822,0.01059
2312.54385,0.01052
2311.57949,0.01041
2310.61513,0.01020
2309.65076,0.00989
2308.68640,0.00953
2307.72203,0.00920
2306.75767,0.00893
2305.79331,0.00871
2304.82894,0.00855
2303.86458,0.00845
2302.90022,0.00841
2301.93585,0.00838
2300.97149,0.00833
2300.00713,0.00821
2299.04276,0.00804
2298.07840,0.00788
2297.11404,0.00780
2296.14967,0.00780
2295.18531,0.00785
2294.22094,0.00785
2293.25658,0.00776
2292.29222,0.00755
2291.32785,0.00730
2290.36349,0.00708
2289.39913,0.00696
2288.43476,0.00696
2287.47040,0.00702
2286.50604,0.00708
2285.54167,0.00707
2284.57731,0.00699
2283.61295,0.00687
2282.64858,0.00677
2281.68422,0.00673
2280.71985,0.00675
2279.75549,0.00681
2278.79113,0.00687
2277.82676,0.00689
2276.86240,0.00687
2275.89804,0.00683
2274.93367,0.00676
2273.96931,0.00663
2273.00495,0.00647
2272.04058,0.00633
2271.07622,0.00629
2270.11186,0.00640
2269.14749,0.00661
2268.18313,0.00683
2267.21876,0.00698
2266.25440,0.00702
2265.29004,0.00700
2264.32567,0.00699
2263.36131,0.00705
2262.39695,0.00719
2261.43258,0.00738
2260.46822,0.00756
2259.50386,0.00769
2258.53949,0.00773
2257.57513,0.00766
2256.61077,0.00752
2255.64640,0.00737
2254.68204,0.00727
2253.71767,0.00723
2252.75331,0.00724
2251.78895,0.00721
2250.82458,0.00711
2249.86022,0.00696
2248.89586,0.00681
2247.93149,0.00674
2246.96713,0.00679
2246.00277,0.00693
2245.03840,0.00713
2244.07404,0.00732
2243.10968,0.00749
2242.14531,0.00763
2241.18095,0.00772
2240.21658,0.00776
2239.25222,0.00777
2238.28786,0.00775
2237.32349,0.00771
2236.35913,0.00765
2235.39477,0.00759
2234.43040,0.00757
2233.46604,0.00758
2232.50168,0.00763
2231.53731,0.00769
2230.57295,0.00772
2229.60859,0.00774
2228.64422,0.00777
2227.67986,0.00783
2226.71549,0.00796
2225.75113,0.00812
2224.78677,0.00826
2223.82240,0.00834
2222.85804,0.00836
2221.89368,0.00832
2220.92931,0.00829
2219.96495,0.00829
2219.00059,0.00833
2218.03622,0.00840
2217.07186,0.00849
2216.10750,0.00859
2215.14313,0.00868
2214.17877,0.00873
2213.21440,0.00872
2212.25004,0.00866
2211.28568,0.00857
2210.32131,0.00849
2209.35695,0.00844
2208.39259,0.00838
2207.42822,0.00830
2206.46386,0.00819
2205.49950,0.00809
2204.53513,0.00806
2203.57077,0.00811
2202.60641,0.00821
2201.64204,0.00831
2200.67768,0.00836
2199.71331,0.00833
2198.74895,0.00824
2197.78459,0.00812
2196.82022,0.00802
2195.85586,0.00798
2194.89150,0.00801
2193.92713,0.00811
2192.96277,0.00824
2191.99841,0.00837
2191.03404,0.00845
2190.06968,0.00847
2189.10532,0.00842
2188.14095,0.00835
2187.17659,0.00829
2186.21222,0.00826
2185.24786,0.00826
2184.28350,0.00824
2183.31913,0.00818
2182.35477,0.00808
2181.39041,0.00803
2180.42604,0.00806
2179.46168,0.00818
2178.49732,0.00832
2177.53295,0.00838
2176.56859,0.00834
2175.60423,0.00825
2174.63986,0.00819
2173.67550,0.00823
2172.71113,0.00836
2171.74677,0.00852
2170.78241,0.00862
2169.81804,0.00863
2168.85368,0.00861
2167.88932,0.00861
2166.92495,0.00867
2165.96059,0.00878
2164.99623,0.00890
2164.03186,0.00899
2163.06750,0.00904
2162.10314,0.00911
2161.13877,0.00923
2160.17441,0.00943
2159.21004,0.00967
2158.24568,0.00992
2157.28132,0.01012
2156.31695,0.01028
2155.35259,0.01042
2154.38823,0.01056
2153.42386,0.01073
2152.45950,0.01089
2151.49514,0.01104
2150.53077,0.01118
2149.56641,0.01131
2148.60205,0.01146
2147.63768,0.01161
2146.67332,0.01176
2145.70895,0.01189
2144.74459,0.01198
2143.78023,0.01205
2142.81586,0.01212
2141.85150,0.01220
2140.88714,0.01228
2139.92277,0.01236
2138.95841,0.01240
2137.99405,0.01241
2137.02968,0.01240
2136.06532,0.01240
2135.10096,0.01242
2134.13659,0.01242
2133.17223,0.01236
2132.20786,0.01218
2131.24350,0.01185
2130.27914,0.01141
2129.31477,0.01092
2128.35041,0.01046
2127.38605,0.01012
2126.42168,0.00993
2125.45732,0.00986
2124.49296,0.00984
2123.52859,0.00980
2122.56423,0.00968
2121.59986,0.00947
2120.63550,0.00918
2119.67114,0.00885
2118.70677,0.00855
2117.74241,0.00832
2116.77805,0.00819
2115.81368,0.00815
2114.84932,0.00812
2113.88496,0.00804
2112.92059,0.00786
2111.95623,0.00759
2110.99187,0.00729
2110.02750,0.00705
2109.06314,0.00696
2108.09877,0.00705
2107.13441,0.00725
2106.17005,0.00747
2105.20568,0.00762
2104.24132,0.00763
2103.27696,0.00752
2102.31259,0.00734
2101.34823,0.00716
2100.38387,0.00704
2099.41950,0.00702
2098.45514,0.00709
2097.49078,0.00722
2096.52641,0.00735
2095.56205,0.00744
2094.59768,0.00748
2093.63332,0.00752
2092.66896,0.00756
2091.70459,0.00760
2090.74023,0.00758
2089.77587,0.00748
2088.81150,0.00732
2087.84714,0.00717
2086.88278,0.00708
2085.91841,0.00705
2084.95405,0.00708
2083.98969,0.00715
2083.02532,0.00724
2082.06096,0.00737
2081.09659,0.00749
2080.13223,0.00755
2079.16787,0.00751
2078.20350,0.00739
2077.23914,0.00722
2076.27478,0.00709
2075.31041,0.00705
2074.34605,0.00712
2073.38169,0.00727
2072.41732,0.00746
2071.45296,0.00766
2070.48860,0.00785
2069.52423,0.00803
2068.55987,0.00819
2067.59550,0.00831
2066.63114,0.00838
2065.66678,0.00835
2064.70241,0.00821
2063.73805,0.00798
2062.77369,0.00770
2061.80932,0.00741
2060.84496,0.00717
2059.88060,0.00701
2058.91623,0.00696
2057.95187,0.00703
2056.98751,0.00720
2056.02314,0.00740
2055.05878,0.00758
2054.09441,0.00769
2053.13005,0.00774
2052.16569,0.00772
2051.20132,0.00766
2050.23696,0.00759
2049.27260,0.00752
2048.30823,0.00749
2047.34387,0.00750
2046.37951,0.00752
2045.41514,0.00751
2044.45078,0.00745
2043.48642,0.00733
2042.52205,0.00719
2041.55769,0.00705
2040.59332,0.00696
2039.62896,0.00690
2038.66460,0.00685
2037.70023,0.00681
2036.73587,0.00678
2035.77151,0.00681
2034.80714,0.00690
2033.84278,0.00704
2032.87842,0.00716
2031.91405,0.00720
2030.94969,0.00714
2029.98533,0.00702
2029.02096,0.00691
2028.05660,0.00689
2027.09223,0.00699
2026.12787,0.00717
2025.16351,0.00734
2024.19914,0.00740
2023.23478,0.00732
2022.27042,0.00714
2021.30605,0.00695
2020.34169,0.00689
2019.37733,0.00702
2018.41296,0.00730
2017.44860,0.00759
2016.48424,0.00776
2015.51987,0.00775
2014.55551,0.00762
2013.59114,0.00744
2012.62678,0.00730
2011.66242,0.00722
2010.69805,0.00721
2009.73369,0.00723
2008.76933,0.00727
2007.80496,0.00731
2006.84060,0.00732
2005.87624,0.00729
2004.91187,0.00723
2003.94751,0.00714
2002.98315,0.00704
2002.01878,0.00693
2001.05442,0.00684
2000.09005,0.00680
1999.12569,0.00681
1998.16133,0.00689
1997.19696,0.00700
1996.23260,0.00715
1995.26824,0.00737
1994.30387,0.00766
1993.33951,0.00795
1992.37515,0.00813
1991.41078,0.00812
1990.44642,0.00794
1989.48206,0.00769
1988.51769,0.00746
1987.55333,0.00724
1986.58896,0.00701
1985.62460,0.00674
1984.66024,0.00650
1983.69587,0.00635
1982.73151,0.00634
1981.76715,0.00642
1980.80278,0.00653
1979.83842,0.00662
1978.87406,0.00667
1977.90969,0.00670
1976.94533,0.00673
1975.98097,0.00675
1975.01660,0.00676
1974.05224,0.00677
1973.08787,0.00679
1972.12351,0.00685
1971.15915,0.00698
1970.19478,0.00720
1969.23042,0.00748
1968.26606,0.00777
1967.30169,0.00798
1966.33733,0.00808
1965.37297,0.00808
1964.40860,0.00806
1963.44424,0.00810
1962.47988,0.00823
1961.51551,0.00844
1960.55115,0.00863
1959.58678,0.00874
1958.62242,0.00872
1957.65806,0.00858
1956.69369,0.00836
1955.72933,0.00809
1954.76497,0.00783
1953.80060,0.00759
1952.83624,0.00738
1951.87188,0.00720
1950.90751,0.00704
1949.94315,0.00694
1948.97879,0.00697
1948.01442,0.00718
1947.05006,0.00759
1946.08569,0.00816
1945.12133,0.00880
1944.15697,0.00935
1943.19260,0.00964
1942.22824,0.00955
1941.26388,0.00910
1940.29951,0.00843
1939.33515,0.00777
1938.37079,0.00732
1937.40642,0.00714
1936.44206,0.00717
1935.47769,0.00730
1934.51333,0.00745
1933.54897,0.00754
1932.58460,0.00757
1931.62024,0.00753
1930.65588,0.00742
1929.69151,0.00726
1928.72715,0.00708
1927.76279,0.00699
1926.79842,0.00712
1925.83406,0.00752
1924.86970,0.00810
1923.90533,0.00868
1922.94097,0.00912
1921.97660,0.00944
1921.01224,0.00980
1920.04788,0.01027
1919.08351,0.01073
1918.11915,0.01092
1917.15479,0.01063
1916.19042,0.00993
1915.22606,0.00911
1914.26170,0.00850
1913.29733,0.00828
1912.33297,0.00839
1911.36861,0.00865
1910.40424,0.00886
1909.43988,0.00891
1908.47551,0.00881
1907.51115,0.00863
1906.54679,0.00846
1905.58242,0.00832
1904.61806,0.00821
1903.65370,0.00809
1902.68933,0.00794
1901.72497,0.00777
1900.76061,0.00761
1899.79624,0.00753
1898.83188,0.00759
1897.86752,0.00780
1896.90315,0.00811
1895.93879,0.00843
1894.97442,0.00868
1894.01006,0.00885
1893.04570,0.00904
1892.08133,0.00932
1891.11697,0.00967
1890.15261,0.00998
1889.18824,0.01009
1888.22388,0.00997
1887.25952,0.00970
1886.29515,0.00944
1885.33079,0.00925
1884.36643,0.00912
1883.40206,0.00899
1882.43770,0.00884
1881.47333,0.00870
1880.50897,0.00861
1879.54461,0.00861
1878.58024,0.00867
1877.61588,0.00878
1876.65152,0.00889
1875.68715,0.00900
1874.72279,0.00920
1873.75843,0.00964
1872.79406,0.01047
1871.82970,0.01170
1870.86534,0.01311
1869.90097,0.01425
1868.93661,0.01470
1867.97224,0.01432
1867.00788,0.01331
1866.04352,0.01209
1865.07915,0.01104
1864.11479,0.01034
1863.15043,0.00997
1862.18606,0.00984
1861.22170,0.00987
1860.25734,0.00999
1859.29297,0.01016
1858.32861,0.01030
1857.36425,0.01038
1856.39988,0.01040
1855.43552,0.01039
1854.47115,0.01041
1853.50679,0.01050
1852.54243,0.01065
1851.57806,0.01087
1850.61370,0.01121
1849.64934,0.01177
1848.68497,0.01268
1847.72061,0.01405
1846.75625,0.01580
1845.79188,0.01751
1844.82752,0.01855
1843.86316,0.01844
1842.89879,0.01717
1841.93443,0.01534
1840.97006,0.01370
1840.00570,0.01273
1839.04134,0.01246
1838.07697,0.01261
1837.11261,0.01284
1836.14825,0.01299
1835.18388,0.01313
1834.21952,0.01351
1833.25516,0.01431
1832.29079,0.01550
1831.32643,0.01678
1830.36207,0.01772
1829.39770,0.01808
1828.43334,0.01794
1827.46897,0.01764
1826.50461,0.01741
1825.54025,0.01725
1824.57588,0.01698
1823.61152,0.01652
1822.64716,0.01598
1821.68279,0.01560
1820.71843,0.01548
1819.75407,0.01558
1818.78970,0.01575
1817.82534,0.01590
1816.86098,0.01607
1815.89661,0.01638
1814.93225,0.01695
1813.96788,0.01778
1813.00352,0.01880
1812.03916,0.01986
1811.07479,0.02083
1810.11043,0.02168
1809.14607,0.02251
1808.18170,0.02352
1807.21734,0.02490
1806.25298,0.02684
1805.28861,0.02947
1804.32425,0.03283
1803.35989,0.03682
1802.39552,0.04117
1801.43116,0.04549
1800.46679,0.04932
1799.50243,0.05237
1798.53807,0.05455
1797.57370,0.05605
1796.60934,0.05721
1795.64498,0.05828
1794.68061,0.05923
1793.71625,0.05962
1792.75189,0.05878
1791.78752,0.05626
1790.82316,0.05222
1789.85880,0.04737
1788.89443,0.04258
1787.93007,0.03844
1786.96570,0.03513
1786.00134,0.03250
1785.03698,0.03032
1784.07261,0.02845
1783.10825,0.02687
1782.14389,0.02558
1781.17952,0.02455
1780.21516,0.02372
1779.25080,0.02303
1778.28643,0.02256
1777.32207,0.02254
1776.35771,0.02318
1775.39334,0.02451
1774.42898,0.02625
1773.46461,0.02779
1772.50025,0.02852
1771.53589,0.02822
1770.57152,0.02714
1769.60716,0.02575
1768.64280,0.02444
1767.67843,0.02336
1766.71407,0.02260
1765.74971,0.02229
1764.78534,0.02255
1763.82098,0.02326
1762.85662,0.02407
1761.89225,0.02455
1760.92789,0.02454
1759.96352,0.02425
1758.99916,0.02397
1758.03480,0.02381
1757.07043,0.02370
1756.10607,0.02359
1755.14171,0.02367
1754.17734,0.02421
1753.21298,0.02536
1752.24862,0.02686
1751.28425,0.02818
1750.31989,0.02881
1749.35553,0.02858
1748.39116,0.02773
1747.42680,0.02668
1746.46243,0.02577
1745.49807,0.02523
1744.53371,0.02515
1743.56934,0.02551
1742.60498,0.02618
1741.64062,0.02688
1740.67625,0.02733
1739.71189,0.02746
1738.74753,0.02760
1737.78316,0.02829
1736.81880,0.02987
1735.85443,0.03206
1734.89007,0.03391
1733.92571,0.03435
1732.96134,0.03300
1731.99698,0.03051
1731.03262,0.02788
1730.06825,0.02580
1729.10389,0.02441
1728.13953,0.02358
1727.17516,0.02311
1726.21080,0.02287
1725.24644,0.02277
1724.28207,0.02278
1723.31771,0.02303
1722.35334,0.02382
1721.38898,0.02537
1720.42462,0.02765
1719.46025,0.03022
1718.49589,0.03234
1717.53153,0.03325
1716.56716,0.03267
1715.60280,0.03087
1714.63844,0.02851
1713.67407,0.02620
1712.70971,0.02432
1711.74535,0.02308
1710.78098,0.02258
1709.81662,0.02283
1708.85225,0.02367
1707.88789,0.02478
1706.92353,0.02580
1705.95916,0.02656
1704.99480,0.02734
1704.03044,0.02865
1703.06607,0.03081
1702.10171,0.03355
1701.13735,0.03598
1700.17298,0.03720
1699.20862,0.03700
1698.24426,0.03598
1697.27989,0.03476
1696.31553,0.03340
1695.35116,0.03156
1694.38680,0.02915
1693.42244,0.02666
1692.45807,0.02480
1691.49371,0.02396
1690.52935,0.02407
1689.56498,0.02491
1688.60062,0.02638
1687.63626,0.02854
1686.67189,0.03127
1685.70753,0.03389
1684.74317,0.03528
1683.77880,0.03466
1682.81444,0.03236
1681.85007,0.02954
1680.88571,0.02729
1679.92135,0.02619
1678.95698,0.02628
1677.99262,0.02722
1677.02826,0.02846
1676.06389,0.02942
1675.09953,0.02976
1674.13517,0.02955
1673.17080,0.02924
1672.20644,0.02921
1671.24208,0.02951
1670.27771,0.02973
1669.31335,0.02942
1668.34898,0.02849
1667.38462,0.02732
1666.42026,0.02649
1665.45589,0.02628
1664.49153,0.02658
1663.52717,0.02696
1662.56280,0.02701
1661.59844,0.02659
1660.63408,0.02591
1659.66971,0.02540
1658.70535,0.02554
1657.74099,0.02679
1656.77662,0.02940
1655.81226,0.03321
1654.84789,0.03737
1653.88353,0.04034
1652.91917,0.04075
1651.95480,0.03876
1650.99044,0.03602
1650.02608,0.03417
1649.06171,0.03379
1648.09735,0.03437
1647.13299,0.03485
1646.16862,0.03433
1645.20426,0.03264
1644.23990,0.03039
1643.27553,0.02840
1642.31117,0.02724
1641.34680,0.02714
1640.38244,0.02809
1639.41808,0.02993
1638.45371,0.03232
1637.48935,0.03467
1636.52499,0.03608
1635.56062,0.03578
1634.59626,0.03376
1633.63190,0.03091
1632.66753,0.02839
1631.70317,0.02694
1630.73881,0.02663
1629.77444,0.02716
1628.81008,0.02820
1627.84571,0.02962
1626.88135,0.03139
1625.91699,0.03327
1624.95262,0.03474
1623.98826,0.03513
1623.02390,0.03404
1622.05953,0.03181
1621.09517,0.02944
1620.13081,0.02814
1619.16644,0.02861
1618.20208,0.03060
1617.23772,0.03289
1616.27335,0.03399
1615.30899,0.03332
1614.34462,0.03162
1613.38026,0.03011
1612.41590,0.02952
1611.45153,0.02972
1610.48717,0.03011
1609.52281,0.03020
1608.55844,0.03002
1607.59408,0.03000
1606.62972,0.03056
1605.66535,0.03170
1604.70099,0.03303
1603.73663,0.03397
1602.77226,0.03413
1601.80790,0.03355
1600.84353,0.03271
1599.87917,0.03223
1598.91481,0.03251
1597.95044,0.03343
1596.98608,0.03452
1596.02172,0.03525
1595.05735,0.03539
1594.09299,0.03512
1593.12863,0.03480
1592.16426,0.03467
1591.19990,0.03470
1590.23554,0.03473
1589.27117,0.03464
1588.30681,0.03453
1587.34244,0.03456
1586.37808,0.03484
1585.41372,0.03527
1584.44935,0.03569
1583.48499,0.03605
1582.52063,0.03646
1581.55626,0.03717
1580.59190,0.03836
1579.62754,0.04007
1578.66317,0.04201
1577.69881,0.04358
1576.73445,0.04410
1575.77008,0.04333
1574.80572,0.04184
1573.84135,0.04064
1572.87699,0.04053
1571.91263,0.04154
1570.94826,0.04303
1569.98390,0.04411
1569.01954,0.04421
1568.05517,0.04347
1567.09081,0.04249
1566.12645,0.04189
1565.16208,0.04213
1564.19772,0.04360
1563.23336,0.04664
1562.26899,0.05138
1561.30463,0.05737
1560.34026,0.06322
1559.37590,0.06693
1558.41154,0.06718
1557.44717,0.06453
1556.48281,0.06089
1555.51845,0.05787
1554.55408,0.05611
1553.58972,0.05549
1552.62536,0.05560
1551.66099,0.05611
1550.69663,0.05685
1549.73226,0.05779
1548.76790,0.05905
1547.80354,0.06078
1546.83917,0.06320
1545.87481,0.06637
1544.91045,0.07020
1543.94608,0.07443
1542.98172,0.07870
1542.01736,0.08248
1541.05299,0.08508
1540.08863,0.08586
1539.12427,0.08485
1538.15990,0.08299
1537.19554,0.08149
1536.23117,0.08108
1535.26681,0.08172
1534.30245,0.08278
1533.33808,0.08351
1532.37372,0.08360
1531.40936,0.08333
1530.44499,0.08331
1529.48063,0.08401
1528.51627,0.08551
1527.55190,0.08756
1526.58754,0.08985
1525.62318,0.09221
1524.65881,0.09464
1523.69445,0.09710
1522.73008,0.09932
1521.76572,0.10092
1520.80136,0.10172
1519.83699,0.10191
1518.87263,0.10190
1517.90827,0.10190
1516.94390,0.10188
1515.97954,0.10170
1515.01518,0.10140
1514.05081,0.10126
1513.08645,0.10158
1512.12209,0.10258
1511.15772,0.10439
1510.19336,0.10705
1509.22899,0.11040
1508.26463,0.11383
1507.30027,0.11619
1506.33590,0.11636
1505.37154,0.11425
1504.40718,0.11102
1503.44281,0.10816
1502.47845,0.10664
1501.51409,0.10667
1500.54972,0.10791
1499.58536,0.10974
1498.62100,0.11150
1497.65663,0.11265
1496.69227,0.11291
1495.72790,0.11246
1494.76354,0.11180
1493.79918,0.11153
1492.83481,0.11201
1491.87045,0.11318
1490.90609,0.11461
1489.94172,0.11575
1488.97736,0.11622
1488.01300,0.11596
1487.04863,0.11520
1486.08427,0.11426
1485.11991,0.11338
1484.15554,0.11272
1483.19118,0.11229
1482.22681,0.11208
1481.26245,0.11209
1480.29809,0.11237
1479.33372,0.11301
1478.36936,0.11410
1477.40500,0.11564
1476.44063,0.11752
1475.47627,0.11951
1474.51191,0.12126
1473.54754,0.12235
1472.58318,0.12242
1471.61882,0.12144
1470.65445,0.11982
1469.69009,0.11827
1468.72572,0.11739
1467.76136,0.11739
1466.79700,0.11807
1465.83263,0.11887
1464.86827,0.11925
1463.90391,0.11901
1462.93954,0.11849
1461.97518,0.11833
1461.01082,0.11916
1460.04645,0.12122
1459.08209,0.12412
1458.11773,0.12688
1457.15336,0.12827
1456.18900,0.12767
1455.22463,0.12554
1454.26027,0.12297
1453.29591,0.12089
1452.33154,0.11969
1451.36718,0.11928
1450.40282,0.11936
1449.43845,0.11961
1448.47409,0.11979
1447.50973,0.11978
1446.54536,0.11957
1445.58100,0.11926
1444.61664,0.11896
1443.65227,0.11873
1442.68791,0.11863
1441.72354,0.11875
1440.75918,0.11926
1439.79482,0.12031
1438.83045,0.12181
1437.86609,0.12330
1436.90173,0.12415
1435.93736,0.12395
1434.97300,0.12285
1434.00864,0.12147
1433.04427,0.12042
1432.07991,0.11990
1431.11555,0.11974
1430.15118,0.11961
1429.18682,0.11932
1428.22245,0.11896
1427.25809,0.11878
1426.29373,0.11895
1425.32936,0.11947
1424.36500,0.12018
1423.40064,0.12098
1422.43627,0.12186
1421.47191,0.12283
1420.50755,0.12369
1419.54318,0.12406
1418.57882,0.12363
1417.61446,0.12242
1416.65009,0.12083
1415.68573,0.11935
1414.72136,0.11828
1413.75700,0.11766
1412.79264,0.11736
1411.82827,0.11720
1410.86391,0.11705
1409.89955,0.11687
1408.93518,0.11677
1407.97082,0.11691
1407.00646,0.11736
1406.04209,0.11798
1405.07773,0.11853
1404.11337,0.11880
1403.14900,0.11884
1402.18464,0.11883
1401.22027,0.11897
1400.25591,0.11926
1399.29155,0.11960
1398.32718,0.11989
1397.36282,0.12008
1396.39846,0.12008
1395.43409,0.11973
1394.46973,0.11888
1393.50537,0.11756
1392.54100,0.11606
1391.57664,0.11476
1390.61228,0.11397
1389.64791,0.11368
1388.68355,0.11362
1387.71918,0.11338
1386.75482,0.11264
1385.79046,0.11134
1384.82609,0.10975
1383.86173,0.10821
1382.89737,0.10702
1381.93300,0.10628
1380.96864,0.10590
1380.00428,0.10572
1379.03991,0.10559
1378.07555,0.10541
1377.11119,0.10512
1376.14682,0.10467
1375.18246,0.10396
1374.21809,0.10294
1373.25373,0.10165
1372.28937,0.10024
1371.32500,0.09889
1370.36064,0.09769
1369.39628,0.09657
1368.43191,0.09544
1367.46755,0.09430
1366.50319,0.09328
1365.53882,0.09251
1364.57446,0.09197
1363.61010,0.09142
1362.64573,0.09057
1361.68137,0.08928
1360.71700,0.08773
1359.75264,0.08622
1358.78828,0.08500
1357.82391,0.08413
1356.85955,0.08344
1355.89519,0.08273
1354.93082,0.08192
1353.96646,0.08109
1353.00210,0.08038
1352.03773,0.07985
1351.07337,0.07943
1350.10900,0.07897
1349.14464,0.07838
1348.18028,0.07762
1347.21591,0.07678
1346.25155,0.07596
1345.28719,0.07523
1344.32282,0.07465
1343.35846,0.07424
1342.39410,0.07399
1341.42973,0.07379
1340.46537,0.07348
1339.50101,0.07290
1338.53664,0.07202
1337.57228,0.07094
1336.60791,0.06987
1335.64355,0.06902
1334.67919,0.06845
1333.71482,0.06811
1332.75046,0.06785
1331.78610,0.06752
1330.82173,0.06708
1329.85737,0.06657
1328.89301,0.06608
1327.92864,0.06573
1326.96428,0.06553
1325.99992,0.06542
1325.03555,0.06532
1324.07119,0.06514
1323.10682,0.06484
1322.14246,0.06443
1321.17810,0.06390
1320.21373,0.06325
1319.24937,0.06252
1318.28501,0.06183
1317.32064,0.06132
1316.35628,0.06106
1315.39192,0.06098
1314.42755,0.06089
1313.46319,0.06058
1312.49883,0.05998
1311.53446,0.05912
1310.57010,0.05814
1309.60573,0.05722
1308.64137,0.05645
1307.67701,0.05586
1306.71264,0.05540
1305.74828,0.05497
1304.78392,0.05448
1303.81955,0.05390
1302.85519,0.05324
1301.89083,0.05259
1300.92646,0.05200
1299.96210,0.05149
1298.99774,0.05098
1298.03337,0.05039
1297.06901,0.04967
1296.10464,0.04888
1295.14028,0.04812
1294.17592,0.04750
1293.21155,0.04709
1292.24719,0.04682
1291.28283,0.04659
1290.31846,0.04632
1289.35410,0.04595
1288.38974,0.04548
1287.42537,0.04497
1286.46101,0.04449
1285.49665,0.04412
1284.53228,0.04390
1283.56792,0.04382
1282.60355,0.04383
1281.63919,0.04387
1280.67483,0.04386
1279.71046,0.04379
1278.74610,0.04365
1277.78174,0.04349
1276.81737,0.04331
1275.85301,0.04310
1274.88865,0.04281
1273.92428,0.04241
1272.95992,0.04194
1271.99556,0.04151
1271.03119,0.04127
1270.06683,0.04124
1269.10246,0.04131
1268.13810,0.04130
1267.17374,0.04111
1266.20937,0.04075
1265.24501,0.04036
1264.28065,0.04003
1263.31628,0.03978
1262.35192,0.03951
1261.38756,0.03914
1260.42319,0.03871
1259.45883,0.03836
1258.49447,0.03820
1257.53010,0.03821
1256.56574,0.03824
1255.60137,0.03814
1254.63701,0.03788
1253.67265,0.03756
1252.70828,0.03730
1251.74392,0.03719
1250.77956,0.03721
1249.81519,0.03732
1248.85083,0.03752
1247.88647,0.03781
1246.92210,0.03821
1245.95774,0.03868
1244.99338,0.03912
1244.02901,0.03941
1243.06465,0.03938
1242.10028,0.03889
1241.13592,0.03791
1240.17156,0.03660
1239.20719,0.03530
1238.24283,0.03437
1237.27847,0.03403
1236.31410,0.03431
1235.34974,0.03504
1234.38538,0.03595
1233.42101,0.03672
1232.45665,0.03713
1231.49229,0.03706
1230.52792,0.03653
1229.56356,0.03572
1228.59919,0.03485
1227.63483,0.03413
1226.67047,0.03368
1225.70610,0.03352
1224.74174,0.03354
1223.77738,0.03354
1222.81301,0.03335
1221.84865,0.03290
1220.88429,0.03228
1219.91992,0.03170
1218.95556,0.03138
1217.99120,0.03141
1217.02683,0.03173
1216.06247,0.03221
1215.09810,0.03271
1214.13374,0.03320
1213.16938,0.03367
1212.20501,0.03410
1211.24065,0.03440
1210.27629,0.03447
1209.31192,0.03429
1208.34756,0.03399
1207.38320,0.03373
1206.41883,0.03361
1205.45447,0.03361
1204.49011,0.03361
1203.52574,0.03353
1202.56138,0.03336
1201.59701,0.03320
1200.63265,0.03314
1199.66829,0.03327
1198.70392,0.03360
1197.73956,0.03410
1196.77520,0.03471
1195.81083,0.03528
1194.84647,0.03565
1193.88211,0.03570
1192.91774,0.03547
1191.95338,0.03511
1190.98902,0.03488
1190.02465,0.03497
1189.06029,0.03537
1188.09592,0.03595
1187.13156,0.03646
1186.16720,0.03674
1185.20283,0.03673
1184.23847,0.03654
1183.27411,0.03629
1182.30974,0.03614
1181.34538,0.03618
1180.38102,0.03637
1179.41665,0.03666
1178.45229,0.03691
1177.48793,0.03704
1176.52356,0.03704
1175.55920,0.03695
1174.59483,0.03683
1173.63047,0.03669
1172.66611,0.03649
1171.70174,0.03623
1170.73738,0.03596
1169.77302,0.03579
1168.80865,0.03582
1167.84429,0.03600
1166.87993,0.03620
1165.91556,0.03623
1164.95120,0.03608
1163.98684,0.03583
1163.02247,0.03563
1162.05811,0.03555
1161.09374,0.03551
1160.12938,0.03538
1159.16502,0.03504
1158.20065,0.03447
1157.23629,0.03371
1156.27193,0.03281
1155.30756,0.03185
1154.34320,0.03089
1153.37884,0.03005
1152.41447,0.02947
1151.45011,0.02919
1150.48574,0.02912
1149.52138,0.02906
1148.55702,0.02871
1147.59265,0.02790
1146.62829,0.02666
1145.66393,0.02526
1144.69956,0.02406
1143.73520,0.02334
1142.77084,0.02316
1141.80647,0.02335
1140.84211,0.02366
1139.87775,0.02390
1138.91338,0.02397
1137.94902,0.02391
1136.98465,0.02377
1136.02029,0.02357
1135.05593,0.02333
1134.09156,0.02304
1133.12720,0.02270
1132.16284,0.02229
1131.19847,0.02186
1130.23411,0.02150
1129.26975,0.02136
1128.30538,0.02153
1127.34102,0.02193
1126.37666,0.02236
1125.41229,0.02260
1124.44793,0.02252
1123.48356,0.02214
1122.51920,0.02157
1121.55484,0.02096
1120.59047,0.02042
1119.62611,0.02005
1118.66175,0.01988
1117.69738,0.01985
1116.73302,0.01979
1115.76866,0.01958
1114.80429,0.01919
1113.83993,0.01875
1112.87557,0.01844
1111.91120,0.01840
1110.94684,0.01860
1109.98247,0.01890
1109.01811,0.01919
1108.05375,0.01942
1107.08938,0.01966
1106.12502,0.01996
1105.16066,0.02034
1104.19629,0.02072
1103.23193,0.02095
1102.26757,0.02091
1101.30320,0.02053
1100.33884,0.01991
1099.37448,0.01921
1098.41011,0.01866
1097.44575,0.01844
1096.48138,0.01855
1095.51702,0.01887
1094.55266,0.01921
1093.58829,0.01946
1092.62393,0.01966
1091.65957,0.02000
1090.69520,0.02062
1089.73084,0.02147
1088.76648,0.02233
1087.80211,0.02297
1086.83775,0.02329
1085.87339,0.02338
1084.90902,0.02332
1083.94466,0.02315
1082.98029,0.02283
1082.01593,0.02239
1081.05157,0.02201
1080.08720,0.02187
1079.12284,0.02202
1078.15848,0.02229
1077.19411,0.02243
1076.22975,0.02228
1075.26539,0.02185
1074.30102,0.02128
1073.33666,0.02071
1072.37230,0.02024
1071.40793,0.01991
1070.44357,0.01970
1069.47920,0.01955
1068.51484,0.01942
1067.55048,0.01926
1066.58611,0.01913
1065.62175,0.01906
1064.65739,0.01906
1063.69302,0.01907
1062.72866,0.01905
1061.76430,0.01897
1060.79993,0.01885
1059.83557,0.01867
1058.87121,0.01840
1057.90684,0.01808
1056.94248,0.01780
1055.97811,0.01767
1055.01375,0.01780
1054.04939,0.01815
1053.08502,0.01862
1052.12066,0.01900
1051.15630,0.01915
1050.19193,0.01902
1049.22757,0.01871
1048.26321,0.01839
1047.29884,0.01818
1046.33448,0.01814
1045.37012,0.01829
1044.40575,0.01864
1043.44139,0.01920
1042.47702,0.01985
1041.51266,0.02033
1040.54830,0.02042
1039.58393,0.02012
1038.61957,0.01967
1037.65521,0.01937
1036.69084,0.01939
1035.72648,0.01970
1034.76212,0.02019
1033.79775,0.02082
1032.83339,0.02156
1031.86903,0.02232
1030.90466,0.02290
1029.94030,0.02311
1028.97593,0.02291
1028.01157,0.02247
1027.04721,0.02216
1026.08284,0.02225
1025.11848,0.02286
1024.15412,0.02383
1023.18975,0.02485
1022.22539,0.02562
1021.26103,0.02596
1020.29666,0.02590
1019.33230,0.02560
1018.36794,0.02525
1017.40357,0.02490
1016.43921,0.02448
1015.47484,0.02391
1014.51048,0.02325
1013.54612,0.02272
1012.58175,0.02255
1011.61739,0.02278
1010.65303,0.02315
1009.68866,0.02327
1008.72430,0.02290
1007.75994,0.02208
1006.79557,0.02112
1005.83121,0.02036
1004.86685,0.02002
1003.90248,0.02011
1002.93812,0.02053
1001.97375,0.02107
1001.00939,0.02158
1000.04503,0.02189
999.08066,0.02192
998.11630,0.02165
997.15194,0.02113
996.18757,0.02049
995.22321,0.01987
994.25885,0.01939
993.29448,0.01907
992.33012,0.01890
991.36576,0.01886
990.40139,0.01894
989.43703,0.01915
988.47266,0.01942
987.50830,0.01965
986.54394,0.01970
985.57957,0.01957
984.61521,0.01936
983.65085,0.01925
982.68648,0.01928
981.72212,0.01936
980.75776,0.01933
979.79339,0.01905
978.82903,0.01858
977.86467,0.01806
976.90030,0.01764
975.93594,0.01735
974.97157,0.01711
974.00721,0.01684
973.04285,0.01653
972.07848,0.01627
971.11412,0.01622
970.14976,0.01643
969.18539,0.01679
968.22103,0.01708
967.25667,0.01703
966.29230,0.01651
965.32794,0.01567
964.36357,0.01488
963.39921,0.01454
962.43485,0.01486
961.47048,0.01569
960.50612,0.01668
959.54176,0.01757
958.57739,0.01825
957.61303,0.01873
956.64867,0.01904
955.68430,0.01923
954.71994,0.01946
953.75558,0.01996
952.79121,0.02083
951.82685,0.02187
950.86248,0.02267
949.89812,0.02284
948.93376,0.02222
947.96939,0.02104
947.00503,0.01976
946.04067,0.01881
945.07630,0.01839
944.11194,0.01850
943.14758,0.01901
942.18321,0.01974
941.21885,0.02045
940.25449,0.02079
939.29012,0.02040
938.32576,0.01922
937.36139,0.01768
936.39703,0.01655
935.43267,0.01651
934.46830,0.01761
933.50394,0.01915
932.53958,0.02021
931.57521,0.02022
930.61085,0.01925
929.64649,0.01789
928.68212,0.01680
927.71776,0.01637
926.75340,0.01659
925.78903,0.01719
924.82467,0.01777
923.86030,0.01815
922.89594,0.01828
921.93158,0.01825
920.96721,0.01814
920.00285,0.01791
919.03849,0.01748
918.07412,0.01686
917.10976,0.01618
916.14540,0.01569
915.18103,0.01555
914.21667,0.01578
913.25231,0.01630
912.28794,0.01698
911.32358,0.01758
910.35921,0.01784
909.39485,0.01754
908.43049,0.01667
907.46612,0.01556
906.50176,0.01473
905.53740,0.01468
904.57303,0.01561
903.60867,0.01729
902.64431,0.01911
901.67994,0.02041
900.71558,0.02093
899.75122,0.02087
898.78685,0.02076
897.82249,0.02115
896.85812,0.02225
895.89376,0.02393
894.92940,0.02581
893.96503,0.02752
893.00067,0.02885
892.03631,0.02990
891.07194,0.03118
890.10758,0.03350
889.14322,0.03765
888.17885,0.04406
887.21449,0.05253
886.25013,0.06241
885.28576,0.07271
884.32140,0.08260
883.35703,0.09153
882.39267,0.09915
881.42831,0.10528
880.46394,0.10987
879.49958,0.11299
878.53522,0.11482
877.57085,0.11564
876.60649,0.11575
875.64213,0.11531
874.67776,0.11431
873.71340,0.11261
872.74904,0.10988
871.78467,0.10578
870.82031,0.10012
869.85594,0.09301
868.89158,0.08492
867.92722,0.07654
866.96285,0.06861
865.99849,0.06169
865.03413,0.05598
864.06976,0.05134
863.10540,0.04742
862.14104,0.04397
861.17667,0.04090
860.21231,0.03838
859.24795,0.03655
858.28358,0.03542
857.31922,0.03469
856.35485,0.03392
855.39049,0.03282
854.42613,0.03147
853.46176,0.03045
852.49740,0.03057
851.53304,0.03236
850.56867,0.03561
849.60431,0.03926
848.63995,0.04186
847.67558,0.04226
846.71122,0.04024
845.74686,0.03643
844.78249,0.03193
843.81813,0.02774
842.85376,0.02450
841.88940,0.02241
840.92504,0.02131
839.96067,0.02089
838.99631,0.02070
838.03195,0.02039
837.06758,0.01988
836.10322,0.01935
835.13886,0.01908
834.17449,0.01917
833.21013,0.01942
832.24577,0.01951
831.28140,0.01918
830.31704,0.01844
829.35267,0.01758
828.38831,0.01704
827.42395,0.01712
826.45958,0.01775
825.49522,0.01851
824.53086,0.01886
823.56649,0.01848
822.60213,0.01756
821.63777,0.01660
820.67340,0.01605
819.70904,0.01606
818.74468,0.01646
817.78031,0.01692
816.81595,0.01723
815.85158,0.01733
814.88722,0.01724
813.92286,0.01701
812.95849,0.01673
811.99413,0.01659
811.02977,0.01678
810.06540,0.01739
809.10104,0.01828
808.13668,0.01910
807.17231,0.01953
806.20795,0.01949
805.24359,0.01919
804.27922,0.01895
803.31486,0.01898
802.35049,0.01925
801.38613,0.01958
800.42177,0.01979
799.45740,0.01980
798.49304,0.01962
797.52868,0.01933
796.56431,0.01901
795.59995,0.01869
794.63559,0.01841
793.67122,0.01818
792.70686,0.01808
791.74250,0.01819
790.77813,0.01855
789.81377,0.01906
788.84940,0.01950
787.88504,0.01967
786.92068,0.01950
785.95631,0.01911
784.99195,0.01878
784.02759,0.01869
783.06322,0.01888
782.09886,0.01921
781.13450,0.01954
780.17013,0.01979
779.20577,0.01997
778.24141,0.02010
777.27704,0.02015
776.31268,0.02007
775.34831,0.01985
774.38395,0.01952
773.41959,0.01918
772.45522,0.01889
771.49086,0.01862
770.52650,0.01832
769.56213,0.01793
768.59777,0.01744
767.63341,0.01694
766.66904,0.01653
765.70468,0.01627
764.74031,0.01610
763.77595,0.01581
762.81159,0.01521
761.84722,0.01425
760.88286,0.01316
759.91850,0.01229
758.95413,0.01192
757.98977,0.01213
757.02541,0.01281
756.06104,0.01370
755.09668,0.01453
754.13232,0.01516
753.16795,0.01549
752.20359,0.01550
751.23922,0.01526
750.27486,0.01493
749.31050,0.01463
748.34613,0.01448
747.38177,0.01451
746.41741,0.01473
745.45304,0.01511
744.48868,0.01556
743.52432,0.01596
742.55995,0.01618
741.59559,0.01618
740.63123,0.01600
739.66686,0.01572
738.70250,0.01541
737.73813,0.01513
736.77377,0.01498
735.80941,0.01513
734.84504,0.01575
733.88068,0.01683
732.91632,0.01818
731.95195,0.01952
730.98759,0.02062
730.02323,0.02140
729.05886,0.02186
728.09450,0.02209
727.13014,0.02231
726.16577,0.02276
725.20141,0.02365
724.23704,0.02502
723.27268,0.02674
722.30832,0.02878
721.34395,0.03130
720.37959,0.03477
719.41523,0.03980
718.45086,0.04688
717.48650,0.05619
716.52214,0.06731
715.55777,0.07902
714.59341,0.08938
713.62905,0.09627
712.66468,0.09818
711.70032,0.09487
710.73595,0.08753
709.77159,0.07812
708.80723,0.06844
707.84286,0.05969
706.87850,0.05225
705.91414,0.04607
704.94977,0.04105
703.98541,0.03723
703.02105,0.03463
702.05668,0.03302
701.09232,0.03188
700.12796,0.03071
699.16359,0.02921
698.19923,0.02742
697.23486,0.02562
696.27050,0.02409
695.30614,0.02292
694.34177,0.02206
693.37741,0.02149
692.41305,0.02121
691.44868,0.02121
690.48432,0.02139
689.51996,0.02158
688.55559,0.02176
687.59123,0.02208
686.62687,0.02272
685.66250,0.02361
684.69814,0.02433
683.73377,0.02442
682.76941,0.02376
681.80505,0.02273
680.84068,0.02195
679.87632,0.02176
678.91196,0.02200
677.94759,0.02211
676.98323,0.02169
676.01887,0.02065
675.05450,0.01930
674.09014,0.01828
673.12578,0.01829
672.16141,0.01991
671.19705,0.02323
670.23268,0.02770
669.26832,0.03179
668.30396,0.03377
667.33959,0.03281
666.37523,0.02962
665.41087,0.02584
664.44650,0.02253
663.48214,0.01995
662.51778,0.01804
661.55341,0.01694
660.58905,0.01694
659.62469,0.01797
658.66032,0.01934
657.69596,0.02001
656.73159,0.01932
655.76723,0.01750
654.80287,0.01544
653.83850,0.01442
652.87414,0.01491
651.90978,0.01651
650.94541,0.01836
649.98105,0.01985
649.01669,0.02078
648.05232,0.02128
647.08796,0.02137
646.12360,0.02100
645.15923,0.02013
644.19487,0.01904
643.23050,0.01828
642.26614,0.01837
641.30178,0.01946
640.33741,0.02127
639.37305,0.02318
638.40869,0.02455
637.44432,0.02502
636.47996,0.02467
635.51560,0.02384
634.55123,0.02302
633.58687,0.02251
632.62251,0.02238
631.65814,0.02253
630.69378,0.02285
629.72941,0.02329
628.76505,0.02384
627.80069,0.02443
626.83632,0.02491
625.87196,0.02510
624.90760,0.02483
623.94323,0.02408
622.97887,0.02301
622.01451,0.02192
621.05014,0.02109
620.08578,0.02073
619.12142,0.02086
618.15705,0.02138
617.19269,0.02216
616.22832,0.02303
615.26396,0.02386
614.29960,0.02456
613.33523,0.02513
612.37087,0.02566
611.40651,0.02629
610.44214,0.02707
609.47778,0.02788
608.51342,0.02840
607.54905,0.02828
606.58469,0.02733
605.62033,0.02566
604.65596,0.02370
603.69160,0.02196
602.72723,0.02085
601.76287,0.02045
600.79851,0.02061
599.83414,0.02103
598.86978,0.02145
597.90542,0.02181
596.94105,0.02229
595.97669,0.02318
595.01233,0.02468
594.04796,0.02664
593.08360,0.02845
592.11924,0.02934
591.15487,0.02884
590.19051,0.02715
589.22614,0.02513
588.26178,0.02382
587.29742,0.02380
586.33305,0.02487
585.36869,0.02624
584.40433,0.02702
583.43996,0.02673
582.47560,0.02544
581.51124,0.02372
580.54687,0.02229
579.58251,0.02175
578.61814,0.02231
577.65378,0.02360
576.68942,0.02499
575.72505,0.02582
574.76069,0.02575
573.79633,0.02494
572.83196,0.02384
571.86760,0.02292
570.90324,0.02247
569.93887,0.02264
568.97451,0.02347
568.01015,0.02470
567.04578,0.02576
566.08142,0.02602
565.11705,0.02527
564.15269,0.02395
563.18833,0.02289
562.22396,0.02269
561.25960,0.02335
560.29524,0.02439
559.33087,0.02526
558.36651,0.02563
557.40215,0.02548
556.43778,0.02497
555.47342,0.02437
554.50906,0.02407
553.54469,0.02437
552.58033,0.02533
551.61596,0.02666
550.65160,0.02789
549.68724,0.02865
548.72287,0.02874
547.75851,0.02822
546.79415,0.02729
545.82978,0.02623
544.86542,0.02534
543.90106,0.02476
542.93669,0.02444
541.97233,0.02425
541.00797,0.02404
540.04360,0.02385
539.07924,0.02374
538.11487,0.02366
537.15051,0.02340
536.18615,0.02284
535.22178,0.02217
534.25742,0.02194
533.29306,0.02270
532.32869,0.02457
531.36433,0.02707
530.39997,0.02948
529.43560,0.03131
528.47124,0.03262
527.50688,0.03368
526.54251,0.03462
525.57815,0.03508
524.61378,0.03454
523.64942,0.03282
522.68506,0.03036
521.72069,0.02797
520.75633,0.02633
519.79197,0.02560
518.82760,0.02564
517.86324,0.02623
516.89888,0.02747
515.93451,0.02964
514.97015,0.03276
514.00579,0.03624
513.04142,0.03905
512.07706,0.04024
511.11269,0.03948
510.14833,0.03717
509.18397,0.03416
508.21960,0.03127
507.25524,0.02900
506.29088,0.02770
505.32651,0.02768
504.36215,0.02890
503.39779,0.03113
502.43342,0.03370
501.46906,0.03581
500.50470,0.03704
499.54033,0.03751
498.57597,0.03777
497.61160,0.03836
496.64724,0.03950
495.68288,0.04105
494.71851,0.04251
493.75415,0.04333
492.78979,0.04329
491.82542,0.04258
490.86106,0.04170
489.89670,0.04107
488.93233,0.04070
487.96797,0.04028
487.00361,0.03941
486.03924,0.03802
485.07488,0.03641
484.11051,0.03508
483.14615,0.03450
482.18179,0.03492
481.21742,0.03620
480.25306,0.03805
479.28870,0.03994
478.32433,0.04136
477.35997,0.04214
476.39561,0.04266
475.43124,0.04360
474.46688,0.04540
473.50252,0.04778
472.53815,0.04985
471.57379,0.05063
470.60942,0.04993
469.64506,0.04838
468.68070,0.04715
467.71633,0.04676
466.75197,0.04699
465.78761,0.04750
464.82324,0.04845
463.85888,0.05018
462.89452,0.05246
461.93015,0.05428
460.96579,0.05445
460.00143,0.05275
459.03706,0.05025
458.07270,0.04864
457.10833,0.04914
456.14397,0.05161
455.17961,0.05482
454.21524,0.05717
453.25088,0.05734
452.28652,0.05503
451.32215,0.05117
450.35779,0.04761
449.39343,0.04585
448.42906,0.04641
447.46470,0.04871
446.50034,0.05173
445.53597,0.05469
444.57161,0.05706
443.60724,0.05825
442.64288,0.05761
441.67852,0.05507
440.71415,0.05169
439.74979,0.04930
438.78543,0.04951
437.82106,0.05281
436.85670,0.05844
435.89234,0.06464
434.92797,0.06931
433.96361,0.07089
432.99925,0.06889
432.03488,0.06428
431.07052,0.05902
430.10615,0.05530
429.14179,0.05407
428.17743,0.05476
427.21306,0.05591
426.24870,0.05629
425.28434,0.05567
424.31997,0.05478
423.35561,0.05462
422.39125,0.05563
421.42688,0.05717
420.46252,0.05774
419.49816,0.05611
418.53379,0.05314
417.56943,0.05148
416.60506,0.05362
415.64070,0.05950
414.67634,0.06701
413.71197,0.07278
412.74761,0.07409
411.78325,0.07094
410.81888,0.06643
409.85452,0.06437
408.89016,0.06714
407.92579,0.07387
406.96143,0.08107
405.99707,0.08459
405.03270,0.08255
404.06834,0.07651
403.10397,0.07137
402.13961,0.07169
401.17525,0.07891
400.21088,0.09030
399.24652,0.10020
