3997.67034,0.14624
3996.23646,0.14630
3994.80257,0.14634
3993.36869,0.14634
3991.93480,0.14629
3990.50092,0.14623
3989.06704,0.14619
3987.63315,0.14615
3986.19927,0.14612
3984.76538,0.14608
3983.33150,0.14604
3981.89761,0.14600
3980.46373,0.14598
3979.02984,0.14598
3977.59596,0.14601
3976.16207,0.14607
3974.72819,0.14611
3973.29430,0.14608
3971.86042,0.14601
3970.42654,0.14594
3968.99265,0.14592
3967.55877,0.14594
3966.12488,0.14595
3964.69100,0.14592
3963.25711,0.14586
3961.82323,0.14579
3960.38934,0.14575
3958.95546,0.14578
3957.52157,0.14585
3956.08769,0.14591
3954.65380,0.14593
3953.21992,0.14590
3951.78604,0.14585
3950.35215,0.14579
3948.91827,0.14573
3947.48438,0.14566
3946.05050,0.14561
3944.61661,0.14562
3943.18273,0.14566
3941.74884,0.14566
3940.31496,0.14557
3938.88107,0.14541
3937.44719,0.14527
3936.01330,0.14525
3934.57942,0.14537
3933.14554,0.14558
3931.71165,0.14570
3930.27777,0.14564
3928.84388,0.14548
3927.41000,0.14534
3925.97611,0.14530
3924.54223,0.14532
3923.10834,0.14533
3921.67446,0.14532
3920.24057,0.14529
3918.80669,0.14526
3917.37280,0.14519
3915.93892,0.14506
3914.50503,0.14486
3913.07115,0.14465
3911.63727,0.14450
3910.20338,0.14447
3908.76950,0.14460
3907.33561,0.14486
3905.90173,0.14519
3904.46784,0.14547
3903.03396,0.14559
3901.60007,0.14548
3900.16619,0.14517
3898.73230,0.14476
3897.29842,0.14439
3895.86453,0.14421
3894.43065,0.14426
3892.99677,0.14446
3891.56288,0.14465
3890.12900,0.14466
3888.69511,0.14454
3887.26123,0.14444
3885.82734,0.14447
3884.39346,0.14453
3882.95957,0.14456
3881.52569,0.14452
3880.09180,0.14440
3878.65792,0.14420
3877.22403,0.14405
3875.79015,0.14407
3874.35627,0.14425
3872.92238,0.14448
3871.48850,0.14466
3870.05461,0.14470
3868.62073,0.14457
3867.18684,0.14436
3865.75296,0.14422
3864.31907,0.14416
3862.88519,0.14409
3861.45130,0.14393
3860.01742,0.14373
3858.58353,0.14367
3857.14965,0.14391
3855.71577,0.14453
3854.28188,0.14533
3852.84800,0.14560
3851.41411,0.14478
3849.98023,0.14354
3848.54634,0.14277
3847.11246,0.14261
3845.67857,0.14288
3844.24469,0.14334
3842.81080,0.14379
3841.37692,0.14416
3839.94303,0.14444
3838.50915,0.14455
3837.07526,0.14438
3835.64138,0.14399
3834.20750,0.14358
3832.77361,0.14334
3831.33973,0.14327
3829.90584,0.14328
3828.47196,0.14331
3827.03807,0.14331
3825.60419,0.14332
3824.17030,0.14345
3822.73642,0.14376
3821.30253,0.14411
3819.86865,0.14418
3818.43476,0.14390
3817.00088,0.14353
3815.56700,0.14322
3814.13311,0.14294
3812.69923,0.14270
3811.26534,0.14260
3809.83146,0.14275
3808.39757,0.14311
3806.96369,0.14346
3805.52980,0.14359
3804.09592,0.14354
3802.66203,0.14351
3801.22815,0.14348
3799.79426,0.14332
3798.36038,0.14306
3796.92650,0.14287
3795.49261,0.14277
3794.05873,0.14266
3792.62484,0.14253
3791.19096,0.14245
3789.75707,0.14251
3788.32319,0.14267
3786.88930,0.14284
3785.45542,0.14297
3784.02153,0.14304
3782.58765,0.14308
3781.15376,0.14310
3779.71988,0.14309
3778.28600,0.14301
3776.85211,0.14285
3775.41823,0.14266
3773.98434,0.14259
3772.55046,0.14268
3771.11657,0.14290
3769.68269,0.14307
3768.24880,0.14311
3766.81492,0.14301
3765.38103,0.14284
3763.94715,0.14265
3762.51326,0.14255
3761.07938,0.14261
3759.64550,0.14278
3758.21161,0.14291
3756.77773,0.14294
3755.34384,0.14297
3753.90996,0.14319
3752.47607,0.14362
3751.04219,0.14398
3749.60830,0.14392
3748.17442,0.14349
3746.74053,0.14315
3745.30665,0.14312
3743.87276,0.14314
3742.43888,0.14287
3741.00499,0.14244
3739.57111,0.14224
3738.13723,0.14246
3736.70334,0.14296
3735.26946,0.14341
3733.83557,0.14348
3732.40169,0.14313
3730.96780,0.14260
3729.53392,0.14222
3728.10003,0.14214
3726.66615,0.14234
3725.23226,0.14267
3723.79838,0.14290
3722.36449,0.14296
3720.93061,0.14289
3719.49673,0.14280
3718.06284,0.14272
3716.62896,0.14274
3715.19507,0.14293
3713.76119,0.14334
3712.32730,0.14389
3710.89342,0.14425
3709.45953,0.14416
3708.02565,0.14373
3706.59176,0.14335
3705.15788,0.14327
3703.72399,0.14346
3702.29011,0.14375
3700.85623,0.14395
3699.42234,0.14398
3697.98846,0.14393
3696.55457,0.14398
3695.12069,0.14421
3693.68680,0.14464
3692.25292,0.14519
3690.81903,0.14570
3689.38515,0.14595
3687.95126,0.14576
3686.51738,0.14532
3685.08349,0.14501
3683.64961,0.14503
3682.21573,0.14532
3680.78184,0.14575
3679.34796,0.14624
3677.91407,0.14679
3676.48019,0.14727
3675.04630,0.14745
3673.61242,0.14724
3672.17853,0.14695
3670.74465,0.14682
3669.31076,0.14675
3667.87688,0.14656
3666.44299,0.14636
3665.00911,0.14635
3663.57522,0.14660
3662.14134,0.14701
3660.70746,0.14748
3659.27357,0.14796
3657.83969,0.14842
3656.40580,0.14879
3654.97192,0.14906
3653.53803,0.14935
3652.10415,0.14985
3650.67026,0.15057
3649.23638,0.15123
3647.80249,0.15136
3646.36861,0.15099
3644.93472,0.15060
3643.50084,0.15059
3642.06696,0.15094
3640.63307,0.15150
3639.19919,0.15208
3637.76530,0.15260
3636.33142,0.15307
3634.89753,0.15354
3633.46365,0.15408
3632.02976,0.15476
3630.59588,0.15560
3629.16199,0.15640
3627.72811,0.15678
3626.29422,0.15670
3624.86034,0.15663
3623.42646,0.15694
3621.99257,0.15765
3620.55869,0.15860
3619.12480,0.15947
3617.69092,0.16005
3616.25703,0.16039
3614.82315,0.16077
3613.38926,0.16131
3611.95538,0.16198
3610.52149,0.16265
3609.08761,0.16326
3607.65372,0.16378
3606.21984,0.16423
3604.78596,0.16471
3603.35207,0.16532
3601.91819,0.16612
3600.48430,0.16699
3599.05042,0.16777
3597.61653,0.16842
3596.18265,0.16904
3594.74876,0.16969
3593.31488,0.17036
3591.88099,0.17103
3590.44711,0.17174
3589.01322,0.17257
3587.57934,0.17339
3586.14546,0.17400
3584.71157,0.17439
3583.27769,0.17484
3581.84380,0.17552
3580.40992,0.17641
3578.97603,0.17734
3577.54215,0.17817
3576.10826,0.17890
3574.67438,0.17957
3573.24049,0.18022
3571.80661,0.18090
3570.37272,0.18171
3568.93884,0.18267
3567.50495,0.18360
3566.07107,0.18421
3564.63719,0.18447
3563.20330,0.18466
3561.76942,0.18508
3560.33553,0.18573
3558.90165,0.18648
3557.46776,0.18722
3556.03388,0.18792
3554.59999,0.18864
3553.16611,0.18933
3551.73222,0.18996
3550.29834,0.19053
3548.86445,0.19115
3547.43057,0.19181
3545.99669,0.19243
3544.56280,0.19293
3543.12892,0.19338
3541.69503,0.19389
3540.26115,0.19449
3538.82726,0.19516
3537.39338,0.19584
3535.95949,0.19648
3534.52561,0.19707
3533.09172,0.19765
3531.65784,0.19827
3530.22395,0.19894
3528.79007,0.19962
3527.35619,0.20023
3525.92230,0.20073
3524.48842,0.20115
3523.05453,0.20156
3521.62065,0.20201
3520.18676,0.20252
3518.75288,0.20308
3517.31899,0.20367
3515.88511,0.20425
3514.45122,0.20480
3513.01734,0.20537
3511.58345,0.20598
3510.14957,0.20658
3508.71569,0.20709
3507.28180,0.20752
3505.84792,0.20796
3504.41403,0.20844
3502.98015,0.20892
3501.54626,0.20933
3500.11238,0.20970
3498.67849,0.21012
3497.24461,0.21060
3495.81072,0.21109
3494.37684,0.21154
3492.94295,0.21196
3491.50907,0.21241
3490.07518,0.21292
3488.64130,0.21345
3487.20742,0.21395
3485.77353,0.21440
3484.33965,0.21485
3482.90576,0.21529
3481.47188,0.21570
3480.03799,0.21606
3478.60411,0.21641
3477.17022,0.21678
3475.73634,0.21719
3474.30245,0.21763
3472.86857,0.21808
3471.43468,0.21850
3470.00080,0.21888
3468.56692,0.21922
3467.13303,0.21956
3465.69915,0.21991
3464.26526,0.22030
3462.83138,0.22073
3461.39749,0.22117
3459.96361,0.22158
3458.52972,0.22193
3457.09584,0.22227
3455.66195,0.22259
3454.22807,0.22290
3452.79418,0.22321
3451.36030,0.22353
3449.92642,0.22387
3448.49253,0.22418
3447.05865,0.22440
3445.62476,0.22452
3444.19088,0.22461
3442.75699,0.22471
3441.32311,0.22485
3439.88922,0.22501
3438.45534,0.22517
3437.02145,0.22530
3435.58757,0.22535
3434.15368,0.22537
3432.71980,0.22539
3431.28592,0.22543
3429.85203,0.22546
3428.41815,0.22549
3426.98426,0.22551
3425.55038,0.22551
3424.11649,0.22542
3422.68261,0.22526
3421.24872,0.22506
3419.81484,0.22488
3418.38095,0.22473
3416.94707,0.22458
3415.51318,0.22440
3414.07930,0.22420
3412.64542,0.22401
3411.21153,0.22384
3409.77765,0.22366
3408.34376,0.22343
3406.90988,0.22314
3405.47599,0.22284
3404.04211,0.22253
3402.60822,0.22221
3401.17434,0.22189
3399.74045,0.22159
3398.30657,0.22130
3396.87268,0.22102
3395.43880,0.22071
3394.00491,0.22034
3392.57103,0.21993
3391.13715,0.21948
3389.70326,0.21905
3388.26938,0.21861
3386.83549,0.21812
3385.40161,0.21757
3383.96772,0.21703
3382.53384,0.21653
3381.09995,0.21606
3379.66607,0.21558
3378.23218,0.21507
3376.79830,0.21456
3375.36441,0.21402
3373.93053,0.21347
3372.49665,0.21289
3371.06276,0.21230
3369.62888,0.21172
3368.19499,0.21115
3366.76111,0.21059
3365.32722,0.20998
3363.89334,0.20933
3362.45945,0.20866
3361.02557,0.20801
3359.59168,0.20741
3358.15780,0.20686
3356.72391,0.20632
3355.29003,0.20578
3353.85615,0.20523
3352.42226,0.20468
3350.98838,0.20411
3349.55449,0.20350
3348.12061,0.20285
3346.68672,0.20221
3345.25284,0.20163
3343.81895,0.20111
3342.38507,0.20064
3340.95118,0.20018
3339.51730,0.19969
3338.08341,0.19915
3336.64953,0.19859
3335.21565,0.19805
3333.78176,0.19755
3332.34788,0.19706
3330.91399,0.19658
3329.48011,0.19612
3328.04622,0.19567
3326.61234,0.19520
3325.17845,0.19470
3323.74457,0.19421
3322.31068,0.19375
3320.87680,0.19333
3319.44291,0.19290
3318.00903,0.19245
3316.57514,0.19202
3315.14126,0.19165
3313.70738,0.19133
3312.27349,0.19104
3310.83961,0.19074
3309.40572,0.19046
3307.97184,0.19018
3306.53795,0.18990
3305.10407,0.18959
3303.67018,0.18923
3302.23630,0.18885
3300.80241,0.18850
3299.36853,0.18821
3297.93464,0.18798
3296.50076,0.18774
3295.06688,0.18747
3293.63299,0.18718
3292.19911,0.18688
3290.76522,0.18658
3289.33134,0.18626
3287.89745,0.18595
3286.46357,0.18566
3285.02968,0.18541
3283.59580,0.18519
3282.16191,0.18497
3280.72803,0.18473
3279.29414,0.18448
3277.86026,0.18429
3276.42638,0.18414
3274.99249,0.18400
3273.55861,0.18383
3272.12472,0.18363
3270.69084,0.18338
3269.25695,0.18304
3267.82307,0.18265
3266.38918,0.18230
3264.95530,0.18200
3263.52141,0.18174
3262.08753,0.18149
3260.65364,0.18124
3259.21976,0.18099
3257.78588,0.18072
3256.35199,0.18045
3254.91811,0.18017
3253.48422,0.17990
3252.05034,0.17964
3250.61645,0.17942
3249.18257,0.17923
3247.74868,0.17903
3246.31480,0.17876
3244.88091,0.17842
3243.44703,0.17805
3242.01314,0.17771
3240.57926,0.17741
3239.14538,0.17715
3237.71149,0.17692
3236.27761,0.17670
3234.84372,0.17648
3233.40984,0.17623
3231.97595,0.17594
3230.54207,0.17562
3229.10818,0.17529
3227.67430,0.17498
3226.24041,0.17467
3224.80653,0.17437
3223.37264,0.17411
3221.93876,0.17388
3220.50487,0.17365
3219.07099,0.17338
3217.63711,0.17307
3216.20322,0.17272
3214.76934,0.17237
3213.33545,0.17204
3211.90157,0.17172
3210.46768,0.17141
3209.03380,0.17107
3207.59991,0.17072
3206.16603,0.17040
3204.73214,0.17013
3203.29826,0.16987
3201.86437,0.16961
3200.43049,0.16934
3198.99661,0.16905
3197.56272,0.16877
3196.12884,0.16849
3194.69495,0.16822
3193.26107,0.16796
3191.82718,0.16769
3190.39330,0.16738
3188.95941,0.16706
3187.52553,0.16674
3186.09164,0.16643
3184.65776,0.16615
3183.22387,0.16593
3181.78999,0.16572
3180.35611,0.16549
3178.92222,0.16523
3177.48834,0.16494
3176.05445,0.16462
3174.62057,0.16430
3173.18668,0.16401
3171.75280,0.16375
3170.31891,0.16350
3168.88503,0.16323
3167.45114,0.16293
3166.01726,0.16259
3164.58337,0.16227
3163.14949,0.16202
3161.71561,0.16184
3160.28172,0.16168
3158.84784,0.16151
3157.41395,0.16131
3155.98007,0.16112
3154.54618,0.16096
3153.11230,0.16081
3151.67841,0.16059
3150.24453,0.16028
3148.81064,0.15994
3147.37676,0.15964
3145.94287,0.15941
3144.50899,0.15921
3143.07510,0.15902
3141.64122,0.15884
3140.20734,0.15870
3138.77345,0.15857
3137.33957,0.15837
3135.90568,0.15811
3134.47180,0.15785
3133.03791,0.15766
3131.60403,0.15753
3130.17014,0.15741
3128.73626,0.15722
3127.30237,0.15698
3125.86849,0.15674
3124.43460,0.15658
3123.00072,0.15657
3121.56684,0.15667
3120.13295,0.15676
3118.69907,0.15671
3117.26518,0.15652
3115.83130,0.15625
3114.39741,0.15594
3112.96353,0.15563
3111.52964,0.15537
3110.09576,0.15521
3108.66187,0.15508
3107.22799,0.15491
3105.79410,0.15467
3104.36022,0.15445
3102.92634,0.15431
3101.49245,0.15427
3100.05857,0.15421
3098.62468,0.15408
3097.19080,0.15388
3095.75691,0.15368
3094.32303,0.15354
3092.88914,0.15347
3091.45526,0.15345
3090.02137,0.15342
3088.58749,0.15335
3087.15360,0.15325
3085.71972,0.15317
3084.28584,0.15311
3082.85195,0.15306
3081.41807,0.15302
3079.98418,0.15297
3078.55030,0.15286
3077.11641,0.15262
3075.68253,0.15227
3074.24864,0.15191
3072.81476,0.15166
3071.38087,0.15154
3069.94699,0.15156
3068.51310,0.15163
3067.07922,0.15163
3065.64534,0.15150
3064.21145,0.15126
3062.77757,0.15100
3061.34368,0.15079
3059.90980,0.15065
3058.47591,0.15059
3057.04203,0.15056
3055.60814,0.15050
3054.17426,0.15040
3052.74037,0.15033
3051.30649,0.15032
3049.87260,0.15031
3048.43872,0.15026
3047.00483,0.15018
3045.57095,0.15016
3044.13707,0.15019
3042.70318,0.15018
3041.26930,0.15006
3039.83541,0.14981
3038.40153,0.14954
3036.96764,0.14939
3035.53376,0.14939
3034.09987,0.14940
3032.66599,0.14930
3031.23210,0.14907
3029.79822,0.14877
3028.36433,0.14851
3026.93045,0.14836
3025.49657,0.14835
3024.06268,0.14840
3022.62880,0.14843
3021.19491,0.14850
3019.76103,0.14862
3018.32714,0.14881
3016.89326,0.14902
3015.45937,0.14925
3014.02549,0.14944
3012.59160,0.14951
3011.15772,0.14941
3009.72383,0.14919
3008.28995,0.14897
3006.85607,0.14887
3005.42218,0.14892
3003.98830,0.14910
3002.55441,0.14935
3001.12053,0.14969
2999.68664,0.15014
2998.25276,0.15064
2996.81887,0.15114
2995.38499,0.15165
2993.95110,0.15225
2992.51722,0.15288
2991.08333,0.15340
2989.64945,0.15378
2988.21557,0.15412
2986.78168,0.15449
2985.34780,0.15488
2983.91391,0.15531
2982.48003,0.15573
2981.04614,0.15608
2979.61226,0.15625
2978.17837,0.15621
2976.74449,0.15605
2975.31060,0.15587
2973.87672,0.15573
2972.44283,0.15561
2971.00895,0.15551
2969.57506,0.15543
2968.14118,0.15538
2966.70730,0.15535
2965.27341,0.15537
2963.83953,0.15542
2962.40564,0.15547
2960.97176,0.15546
2959.53787,0.15535
2958.10399,0.15519
2956.67010,0.15505
2955.23622,0.15499
2953.80233,0.15499
2952.36845,0.15495
2950.93456,0.15483
2949.50068,0.15471
2948.06680,0.15471
2946.63291,0.15481
2945.19903,0.15488
2943.76514,0.15482
2942.33126,0.15465
2940.89737,0.15451
2939.46349,0.15449
2938.02960,0.15458
2936.59572,0.15468
2935.16183,0.15477
2933.72795,0.15490
2932.29406,0.15512
2930.86018,0.15538
2929.42630,0.15554
2927.99241,0.15552
2926.55853,0.15538
2925.12464,0.15522
2923.69076,0.15507
2922.25687,0.15492
2920.82299,0.15479
2919.38910,0.15468
2917.95522,0.15455
2916.52133,0.15437
2915.08745,0.15412
2913.65356,0.15378
2912.21968,0.15331
2910.78580,0.15275
2909.35191,0.15218
2907.91803,0.15169
2906.48414,0.15136
2905.05026,0.15116
2903.61637,0.15103
2902.18249,0.15092
2900.74860,0.15081
2899.31472,0.15075
2897.88083,0.15075
2896.44695,0.15078
2895.01306,0.15075
2893.57918,0.15069
2892.14530,0.15067
2890.71141,0.15077
2889.27753,0.15101
2887.84364,0.15133
2886.40976,0.15169
2884.97587,0.15207
2883.54199,0.15247
2882.10810,0.15290
2880.67422,0.15338
2879.24033,0.15384
2877.80645,0.15427
2876.37256,0.15469
2874.93868,0.15507
2873.50479,0.15525
2872.07091,0.15508
2870.63703,0.15463
2869.20314,0.15405
2867.76926,0.15349
2866.33537,0.15296
2864.90149,0.15244
2863.46760,0.15197
2862.03372,0.15159
2860.59983,0.15123
2859.16595,0.15083
2857.73206,0.15032
2856.29818,0.14976
2854.86429,0.14919
2853.43041,0.14860
2851.99653,0.14798
2850.56264,0.14733
2849.12876,0.14666
2847.69487,0.14590
2846.26099,0.14504
2844.82710,0.14410
2843.39322,0.14322
2841.95933,0.14250
2840.52545,0.14194
2839.09156,0.14143
2837.65768,0.14080
2836.22379,0.14006
2834.78991,0.13930
2833.35603,0.13863
2831.92214,0.13804
2830.48826,0.13750
2829.05437,0.13702
2827.62049,0.13657
2826.18660,0.13617
2824.75272,0.13581
2823.31883,0.13551
2821.88495,0.13526
2820.45106,0.13506
2819.01718,0.13485
2817.58329,0.13461
2816.14941,0.13435
2814.71553,0.13411
2813.28164,0.13395
2811.84776,0.13392
2810.41387,0.13393
2808.97999,0.13387
2807.54610,0.13372
2806.11222,0.13352
2804.67833,0.13334
2803.24445,0.13320
2801.81056,0.13309
2800.37668,0.13305
2798.94279,0.13305
2797.50891,0.13303
2796.07502,0.13292
2794.64114,0.13277
2793.20726,0.13264
2791.77337,0.13257
2790.33949,0.13251
2788.90560,0.13240
2787.47172,0.13218
2786.03783,0.13190
2784.60395,0.13164
2783.17006,0.13144
2781.73618,0.13132
2780.30229,0.13124
2778.86841,0.13122
2777.43452,0.13125
2776.00064,0.13129
2774.56676,0.13126
2773.13287,0.13113
2771.69899,0.13096
2770.26510,0.13081
2768.83122,0.13071
2767.39733,0.13063
2765.96345,0.13056
2764.52956,0.13049
2763.09568,0.13043
2761.66179,0.13038
2760.22791,0.13034
2758.79402,0.13029
2757.36014,0.13023
2755.92626,0.13017
2754.49237,0.13011
2753.05849,0.13005
2751.62460,0.13003
2750.19072,0.13008
2748.75683,0.13013
2747.32295,0.13012
2745.88906,0.13004
2744.45518,0.12991
2743.02129,0.12981
2741.58741,0.12975
2740.15352,0.12972
2738.71964,0.12971
2737.28576,0.12970
2735.85187,0.12966
2734.41799,0.12963
2732.98410,0.12961
2731.55022,0.12961
2730.11633,0.12961
2728.68245,0.12960
2727.24856,0.12960
2725.81468,0.12959
2724.38079,0.12958
2722.94691,0.12956
2721.51302,0.12955
2720.07914,0.12953
2718.64526,0.12947
2717.21137,0.12938
2715.77749,0.12928
2714.34360,0.12922
2712.90972,0.12921
2711.47583,0.12923
2710.04195,0.12925
2708.60806,0.12926
2707.17418,0.12926
2705.74029,0.12928
2704.30641,0.12930
2702.87252,0.12929
2701.43864,0.12928
2700.00475,0.12927
2698.57087,0.12929
2697.13699,0.12929
2695.70310,0.12928
2694.26922,0.12925
2692.83533,0.12921
2691.40145,0.12920
2689.96756,0.12920
2688.53368,0.12921
2687.09979,0.12921
2685.66591,0.12921
2684.23202,0.12923
2682.79814,0.12928
2681.36425,0.12936
2679.93037,0.12942
2678.49649,0.12943
2677.06260,0.12940
2675.62872,0.12935
2674.19483,0.12931
2672.76095,0.12929
2671.32706,0.12929
2669.89318,0.12931
2668.45929,0.12933
2667.02541,0.12934
2665.59152,0.12937
2664.15764,0.12942
2662.72375,0.12948
2661.28987,0.12953
2659.85599,0.12956
2658.42210,0.12960
2656.98822,0.12968
2655.55433,0.12979
2654.12045,0.12990
2652.68656,0.12999
2651.25268,0.13005
2649.81879,0.13012
2648.38491,0.13018
2646.95102,0.13025
2645.51714,0.13036
2644.08325,0.13049
2642.64937,0.13066
2641.21549,0.13085
2639.78160,0.13109
2638.34772,0.13134
2636.91383,0.13159
2635.47995,0.13183
2634.04606,0.13208
2632.61218,0.13236
2631.17829,0.13268
2629.74441,0.13301
2628.31052,0.13334
2626.87664,0.13368
2625.44275,0.13401
2624.00887,0.13434
2622.57498,0.13469
2621.14110,0.13507
2619.70722,0.13547
2618.27333,0.13587
2616.83945,0.13625
2615.40556,0.13662
2613.97168,0.13699
2612.53779,0.13739
2611.10391,0.13780
2609.67002,0.13823
2608.23614,0.13866
2606.80225,0.13904
2605.36837,0.13937
2603.93448,0.13964
2602.50060,0.13988
2601.06672,0.14009
2599.63283,0.14029
2598.19895,0.14045
2596.76506,0.14058
2595.33118,0.14071
2593.89729,0.14083
2592.46341,0.14096
2591.02952,0.14108
2589.59564,0.14116
2588.16175,0.14120
2586.72787,0.14124
2585.29398,0.14131
2583.86010,0.14141
2582.42622,0.14151
2580.99233,0.14162
2579.55845,0.14172
2578.12456,0.14181
2576.69068,0.14188
2575.25679,0.14197
2573.82291,0.14206
2572.38902,0.14217
2570.95514,0.14226
2569.52125,0.14235
2568.08737,0.14246
2566.65348,0.14259
2565.21960,0.14275
2563.78572,0.14294
2562.35183,0.14313
2560.91795,0.14335
2559.48406,0.14361
2558.05018,0.14389
2556.61629,0.14417
2555.18241,0.14444
2553.74852,0.14471
2552.31464,0.14502
2550.88075,0.14537
2549.44687,0.14578
2548.01298,0.14625
2546.57910,0.14677
2545.14522,0.14732
2543.71133,0.14792
2542.27745,0.14858
2540.84356,0.14933
2539.40968,0.15022
2537.97579,0.15128
2536.54191,0.15252
2535.10802,0.15392
2533.67414,0.15542
2532.24025,0.15695
2530.80637,0.15849
2529.37248,0.16001
2527.93860,0.16146
2526.50471,0.16280
2525.07083,0.16399
2523.63695,0.16507
2522.20306,0.16604
2520.76918,0.16687
2519.33529,0.16752
2517.90141,0.16796
2516.46752,0.16821
2515.03364,0.16830
2513.59975,0.16825
2512.16587,0.16801
2510.73198,0.16753
2509.29810,0.16679
2507.86421,0.16573
2506.43033,0.16436
2504.99645,0.16271
2503.56256,0.16084
2502.12868,0.15884
2500.69479,0.15678
2499.26091,0.15468
2497.82702,0.15259
2496.39314,0.15053
2494.95925,0.14855
2493.52537,0.14668
2492.09148,0.14497
2490.65760,0.14345
2489.22371,0.14211
2487.78983,0.14094
2486.35595,0.13990
2484.92206,0.13896
2483.48818,0.13810
2482.05429,0.13730
2480.62041,0.13657
2479.18652,0.13592
2477.75264,0.13533
2476.31875,0.13476
2474.88487,0.13421
2473.45098,0.13367
2472.01710,0.13313
2470.58321,0.13258
2469.14933,0.13203
2467.71545,0.13149
2466.28156,0.13098
2464.84768,0.13050
2463.41379,0.13005
2461.97991,0.12965
2460.54602,0.12933
2459.11214,0.12906
2457.67825,0.12881
2456.24437,0.12859
2454.81048,0.12838
2453.37660,0.12822
2451.94271,0.12811
2450.50883,0.12801
2449.07494,0.12788
2447.64106,0.12773
2446.20718,0.12758
2444.77329,0.12747
2443.33941,0.12738
2441.90552,0.12732
2440.47164,0.12726
2439.03775,0.12720
2437.60387,0.12714
2436.16998,0.12706
2434.73610,0.12699
2433.30221,0.12695
2431.86833,0.12692
2430.43444,0.12690
2429.00056,0.12689
2427.56668,0.12689
2426.13279,0.12689
2424.69891,0.12688
2423.26502,0.12685
2421.83114,0.12681
2420.39725,0.12678
2418.96337,0.12677
2417.52948,0.12678
2416.09560,0.12679
2414.66171,0.12679
2413.22783,0.12678
2411.79394,0.12678
2410.36006,0.12679
2408.92618,0.12679
2407.49229,0.12682
2406.05841,0.12687
2404.62452,0.12692
2403.19064,0.12692
2401.75675,0.12688
2400.32287,0.12683
2398.88898,0.12680
2397.45510,0.12681
2396.02121,0.12687
2394.58733,0.12695
2393.15344,0.12700
2391.71956,0.12703
2390.28568,0.12705
2388.85179,0.12709
2387.41791,0.12716
2385.98402,0.12726
2384.55014,0.12740
2383.11625,0.12755
2381.68237,0.12773
2380.24848,0.12792
2378.81460,0.12812
2377.38071,0.12832
2375.94683,0.12853
2374.51294,0.12873
2373.07906,0.12888
2371.64517,0.12902
2370.21129,0.12919
2368.77741,0.12940
2367.34352,0.12958
2365.90964,0.12967
2364.47575,0.12966
2363.04187,0.12960
2361.60798,0.12956
2360.17410,0.12953
2358.74021,0.12945
2357.30633,0.12926
2355.87244,0.12896
2354.43856,0.12857
2353.00467,0.12816
2351.57079,0.12780
2350.13691,0.12766
2348.70302,0.12789
2347.26914,0.12850
2345.83525,0.12930
2344.40137,0.12994
2342.96748,0.13018
2341.53360,0.13007
2340.09971,0.12983
2338.66583,0.12959
2337.23194,0.12941
2335.79806,0.12931
2334.36417,0.12931
2332.93029,0.12938
2331.49641,0.12943
2330.06252,0.12938
2328.62864,0.12924
2327.19475,0.12911
2325.76087,0.12905
2324.32698,0.12907
2322.89310,0.12913
2321.45921,0.12916
2320.02533,0.12914
2318.59144,0.12909
2317.15756,0.12905
2315.72367,0.12907
2314.28979,0.12915
2312.85591,0.12925
2311.42202,0.12932
2309.98814,0.12935
2308.55425,0.12936
2307.12037,0.12935
2305.68648,0.12934
2304.25260,0.12937
2302.81871,0.12944
2301.38483,0.12956
2299.95094,0.12968
2298.51706,0.12976
2297.08317,0.12982
2295.64929,0.12988
2294.21541,0.12993
2292.78152,0.12997
2291.34764,0.12999
2289.91375,0.13003
2288.47987,0.13007
2287.04598,0.13011
2285.61210,0.13015
2284.17821,0.13018
2282.74433,0.13022
2281.31044,0.13028
2279.87656,0.13037
2278.44267,0.13049
2277.00879,0.13060
2275.57490,0.13068
2274.14102,0.13074
2272.70714,0.13080
2271.27325,0.13088
2269.83937,0.13095
2268.40548,0.13104
2266.97160,0.13111
2265.53771,0.13117
2264.10383,0.13120
2262.66994,0.13121
2261.23606,0.13126
2259.80217,0.13135
2258.36829,0.13147
2256.93440,0.13158
2255.50052,0.13168
2254.06664,0.13176
2252.63275,0.13183
2251.19887,0.13191
2249.76498,0.13200
2248.33110,0.13210
2246.89721,0.13217
2245.46333,0.13221
2244.02944,0.13224
2242.59556,0.13229
2241.16167,0.13237
2239.72779,0.13248
2238.29390,0.13259
2236.86002,0.13270
2235.42614,0.13279
2233.99225,0.13288
2232.55837,0.13295
2231.12448,0.13301
2229.69060,0.13308
2228.25671,0.13316
2226.82283,0.13327
2225.38894,0.13339
2223.95506,0.13349
2222.52117,0.13355
2221.08729,0.13360
2219.65340,0.13368
2218.21952,0.13380
2216.78564,0.13391
2215.35175,0.13398
2213.91787,0.13405
2212.48398,0.13412
2211.05010,0.13420
2209.61621,0.13427
2208.18233,0.13434
2206.74844,0.13442
2205.31456,0.13451
2203.88067,0.13461
2202.44679,0.13471
2201.01290,0.13477
2199.57902,0.13481
2198.14513,0.13486
2196.71125,0.13494
2195.27737,0.13505
2193.84348,0.13516
2192.40960,0.13525
2190.97571,0.13534
2189.54183,0.13543
2188.10794,0.13554
2186.67406,0.13566
2185.24017,0.13578
2183.80629,0.13587
2182.37240,0.13594
2180.93852,0.13600
2179.50463,0.13608
2178.07075,0.13620
2176.63687,0.13635
2175.20298,0.13653
2173.76910,0.13670
2172.33521,0.13682
2170.90133,0.13688
2169.46744,0.13692
2168.03356,0.13701
2166.59967,0.13716
2165.16579,0.13734
2163.73190,0.13751
2162.29802,0.13764
2160.86413,0.13774
2159.43025,0.13783
2157.99637,0.13794
2156.56248,0.13807
2155.12860,0.13823
2153.69471,0.13842
2152.26083,0.13863
2150.82694,0.13880
2149.39306,0.13893
2147.95917,0.13902
2146.52529,0.13910
2145.09140,0.13921
2143.65752,0.13932
2142.22363,0.13942
2140.78975,0.13951
2139.35587,0.13958
2137.92198,0.13964
2136.48810,0.13968
2135.05421,0.13972
2133.62033,0.13975
2132.18644,0.13978
2130.75256,0.13981
2129.31867,0.13983
2127.88479,0.13985
2126.45090,0.13987
2125.01702,0.13991
2123.58313,0.13996
2122.14925,0.13999
2120.71537,0.14000
2119.28148,0.13999
2117.84760,0.14001
2116.41371,0.14005
2114.97983,0.14013
2113.54594,0.14021
2112.11206,0.14030
2110.67817,0.14039
2109.24429,0.14048
2107.81040,0.14056
2106.37652,0.14062
2104.94263,0.14070
2103.50875,0.14081
2102.07486,0.14093
2100.64098,0.14104
2099.20710,0.14112
2097.77321,0.14119
2096.33933,0.14125
2094.90544,0.14134
2093.47156,0.14146
2092.03767,0.14161
2090.60379,0.14177
2089.16990,0.14189
2087.73602,0.14199
2086.30213,0.14207
2084.86825,0.14215
2083.43436,0.14224
2082.00048,0.14237
2080.56660,0.14253
2079.13271,0.14268
2077.69883,0.14280
2076.26494,0.14290
2074.83106,0.14302
2073.39717,0.14317
2071.96329,0.14332
2070.52940,0.14346
2069.09552,0.14358
2067.66163,0.14371
2066.22775,0.14386
2064.79386,0.14399
2063.35998,0.14409
2061.92610,0.14417
2060.49221,0.14428
2059.05833,0.14442
2057.62444,0.14459
2056.19056,0.14475
2054.75667,0.14491
2053.32279,0.14505
2051.88890,0.14517
2050.45502,0.14527
2049.02113,0.14538
2047.58725,0.14552
2046.15336,0.14567
2044.71948,0.14582
2043.28560,0.14596
2041.85171,0.14608
2040.41783,0.14619
2038.98394,0.14631
2037.55006,0.14645
2036.11617,0.14662
2034.68229,0.14681
2033.24840,0.14699
2031.81452,0.14718
2030.38063,0.14735
2028.94675,0.14752
2027.51286,0.14768
2026.07898,0.14782
2024.64509,0.14795
2023.21121,0.14810
2021.77733,0.14825
2020.34344,0.14841
2018.90956,0.14858
2017.47567,0.14873
2016.04179,0.14887
2014.60790,0.14900
2013.17402,0.14915
2011.74013,0.14932
2010.30625,0.14948
2008.87236,0.14962
2007.43848,0.14976
2006.00459,0.14989
2004.57071,0.15004
2003.13683,0.15021
2001.70294,0.15039
2000.26906,0.15057
1998.83517,0.15073
1997.40129,0.15089
1995.96740,0.15108
1994.53352,0.15134
1993.09963,0.15159
1991.66575,0.15176
1990.23186,0.15184
1988.79798,0.15192
1987.36409,0.15207
1985.93021,0.15228
1984.49633,0.15250
1983.06244,0.15273
1981.62856,0.15298
1980.19467,0.15321
1978.76079,0.15341
1977.32690,0.15358
1975.89302,0.15373
1974.45913,0.15390
1973.02525,0.15408
1971.59136,0.15429
1970.15748,0.15456
1968.72359,0.15485
1967.28971,0.15511
1965.85583,0.15532
1964.42194,0.15551
1962.98806,0.15575
1961.55417,0.15603
1960.12029,0.15627
1958.68640,0.15643
1957.25252,0.15654
1955.81863,0.15667
1954.38475,0.15683
1952.95086,0.15701
1951.51698,0.15721
1950.08309,0.15742
1948.64921,0.15765
1947.21533,0.15788
1945.78144,0.15814
1944.34756,0.15840
1942.91367,0.15861
1941.47979,0.15874
1940.04590,0.15887
1938.61202,0.15908
1937.17813,0.15938
1935.74425,0.15969
1934.31036,0.15996
1932.87648,0.16020
1931.44259,0.16045
1930.00871,0.16072
1928.57482,0.16102
1927.14094,0.16133
1925.70706,0.16164
1924.27317,0.16192
1922.83929,0.16213
1921.40540,0.16233
1919.97152,0.16260
1918.53763,0.16293
1917.10375,0.16317
1915.66986,0.16331
1914.23598,0.16350
1912.80209,0.16382
1911.36821,0.16422
1909.93432,0.16457
1908.50044,0.16484
1907.06656,0.16508
1905.63267,0.16535
1904.19879,0.16566
1902.76490,0.16597
1901.33102,0.16627
1899.89713,0.16659
1898.46325,0.16695
1897.02936,0.16732
1895.59548,0.16766
1894.16159,0.16797
1892.72771,0.16831
1891.29382,0.16873
1889.85994,0.16913
1888.42606,0.16940
1886.99217,0.16957
1885.55829,0.16980
1884.12440,0.17016
1882.69052,0.17058
1881.25663,0.17100
1879.82275,0.17142
1878.38886,0.17184
1876.95498,0.17224
1875.52109,0.17261
1874.08721,0.17301
1872.65332,0.17351
1871.21944,0.17412
1869.78556,0.17469
1868.35167,0.17498
1866.91779,0.17500
1865.48390,0.17508
1864.05002,0.17545
1862.61613,0.17603
1861.18225,0.17662
1859.74836,0.17712
1858.31448,0.17755
1856.88059,0.17796
1855.44671,0.17841
1854.01282,0.17889
1852.57894,0.17939
1851.14505,0.17993
1849.71117,0.18051
1848.27729,0.18116
1846.84340,0.18191
1845.40952,0.18266
1843.97563,0.18311
1842.54175,0.18323
1841.10786,0.18341
1839.67398,0.18397
1838.24009,0.18480
1836.80621,0.18559
1835.37232,0.18625
1833.93844,0.18692
1832.50455,0.18777
1831.07067,0.18872
1829.63679,0.18952
1828.20290,0.19012
1826.76902,0.19074
1825.33513,0.19150
1823.90125,0.19231
1822.46736,0.19313
1821.03348,0.19410
1819.59959,0.19531
1818.16571,0.19667
1816.73182,0.19810
1815.29794,0.19961
1813.86405,0.20132
1812.43017,0.20330
1810.99629,0.20555
1809.56240,0.20809
1808.12852,0.21101
1806.69463,0.21447
1805.26075,0.21851
1803.82686,0.22300
1802.39298,0.22767
1800.95909,0.23202
1799.52521,0.23538
1798.09132,0.23733
1796.65744,0.23801
1795.22355,0.23767
1793.78967,0.23606
1792.35579,0.23252
1790.92190,0.22718
1789.48802,0.22161
1788.05413,0.21707
1786.62025,0.21358
1785.18636,0.21077
1783.75248,0.20852
1782.31859,0.20689
1780.88471,0.20580
1779.45082,0.20511
1778.01694,0.20479
1776.58305,0.20492
1775.14917,0.20545
1773.71529,0.20609
1772.28140,0.20638
1770.84752,0.20623
1769.41363,0.20613
1767.97975,0.20641
1766.54586,0.20705
1765.11198,0.20791
1763.67809,0.20891
1762.24421,0.20983
1760.81032,0.21049
1759.37644,0.21107
1757.94255,0.21184
1756.50867,0.21276
1755.07478,0.21372
1753.64090,0.21479
1752.20702,0.21601
1750.77313,0.21715
1749.33925,0.21797
1747.90536,0.21864
1746.47148,0.21951
1745.03759,0.22066
1743.60371,0.22195
1742.16982,0.22322
1740.73594,0.22435
1739.30205,0.22530
1737.86817,0.22628
1736.43428,0.22755
1735.00040,0.22891
1733.56652,0.22968
1732.13263,0.22974
1730.69875,0.22995
1729.26486,0.23074
1727.83098,0.23184
1726.39709,0.23299
1724.96321,0.23414
1723.52932,0.23530
1722.09544,0.23652
1720.66155,0.23796
1719.22767,0.23960
1717.79378,0.24100
1716.35990,0.24175
1714.92602,0.24221
1713.49213,0.24304
1712.05825,0.24436
1710.62436,0.24594
1709.19048,0.24765
1707.75659,0.24944
1706.32271,0.25121
1704.88882,0.25287
1703.45494,0.25462
1702.02105,0.25675
1700.58717,0.25909
1699.15328,0.26107
1697.71940,0.26283
1696.28552,0.26510
1694.85163,0.26786
1693.41775,0.27068
1691.98386,0.27353
1690.54998,0.27641
1689.11609,0.27894
1687.68221,0.28080
1686.24832,0.28197
1684.81444,0.28179
1683.38055,0.27958
1681.94667,0.27691
1680.51278,0.27563
1679.07890,0.27572
1677.64501,0.27652
1676.21113,0.27749
1674.77725,0.27830
1673.34336,0.27908
1671.90948,0.28022
1670.47559,0.28168
1669.04171,0.28293
1667.60782,0.28384
1666.17394,0.28500
1664.74005,0.28677
1663.30617,0.28876
1661.87228,0.29043
1660.43840,0.29179
1659.00451,0.29333
1657.57063,0.29536
1656.13675,0.29793
1654.70286,0.30073
1653.26898,0.30266
1651.83509,0.30289
1650.40121,0.30316
1648.96732,0.30473
1647.53344,0.30697
1646.09955,0.30867
1644.66567,0.30956
1643.23178,0.31060
1641.79790,0.31223
1640.36401,0.31424
1638.93013,0.31639
1637.49625,0.31852
1636.06236,0.32011
1634.62848,0.32071
1633.19459,0.32105
1631.76071,0.32208
1630.32682,0.32379
1628.89294,0.32563
1627.45905,0.32720
1626.02517,0.32857
1624.59128,0.32995
1623.15740,0.33123
1621.72351,0.33236
1620.28963,0.33375
1618.85575,0.33560
1617.42186,0.33748
1615.98798,0.33867
1614.55409,0.33937
1613.12021,0.34047
1611.68632,0.34220
1610.25244,0.34420
1608.81855,0.34611
1607.38467,0.34790
1605.95078,0.34975
1604.51690,0.35174
1603.08301,0.35387
1601.64913,0.35609
1600.21525,0.35838
1598.78136,0.36079
1597.34748,0.36335
1595.91359,0.36601
1594.47971,0.36875
1593.04582,0.37155
1591.61194,0.37439
1590.17805,0.37724
1588.74417,0.38009
1587.31028,0.38290
1585.87640,0.38572
1584.44251,0.38863
1583.00863,0.39162
1581.57474,0.39470
1580.14086,0.39797
1578.70698,0.40156
1577.27309,0.40535
1575.83921,0.40889
1574.40532,0.41197
1572.97144,0.41524
1571.53755,0.41931
1570.10367,0.42402
1568.66978,0.42866
1567.23590,0.43300
1565.80201,0.43761
1564.36813,0.44276
1562.93424,0.44833
1561.50036,0.45445
1560.06648,0.46159
1558.63259,0.46918
1557.19871,0.47540
1555.76482,0.48093
1554.33094,0.48748
1552.89705,0.49509
1551.46317,0.50310
1550.02928,0.51126
1548.59540,0.51953
1547.16151,0.52774
1545.72763,0.53607
1544.29374,0.54481
1542.85986,0.55383
1541.42598,0.56289
1539.99209,0.57175
1538.55821,0.57936
1537.12432,0.58583
1535.69044,0.59268
1534.25655,0.60070
1532.82267,0.60934
1531.38878,0.61752
1529.95490,0.62521
1528.52101,0.63320
1527.08713,0.64179
1525.65324,0.65050
1524.21936,0.65902
1522.78548,0.66782
1521.35159,0.67697
1519.91771,0.68560
1518.48382,0.69358
1517.04994,0.70175
1515.61605,0.71028
1514.18217,0.71890
1512.74828,0.72775
1511.31440,0.73706
1509.88051,0.74692
1508.44663,0.75765
1507.01274,0.76921
1505.57886,0.77970
1504.14497,0.78799
1502.71109,0.79591
1501.27721,0.80502
1499.84332,0.81544
1498.40944,0.82645
1496.97555,0.83726
1495.54167,0.84734
1494.10778,0.85675
1492.67390,0.86632
1491.24001,0.87687
1489.80613,0.88814
1488.37224,0.89879
1486.93836,0.90832
1485.50447,0.91742
1484.07059,0.92668
1482.63671,0.93637
1481.20282,0.94633
1479.76894,0.95620
1478.33505,0.96604
1476.90117,0.97620
1475.46728,0.98664
1474.03340,0.99713
1472.59951,1.00724
1471.16563,1.01626
1469.73174,1.02435
1468.29786,1.03267
1466.86397,1.04185
1465.43009,1.05143
1463.99621,1.06049
1462.56232,1.06885
1461.12844,1.07747
1459.69455,1.08737
1458.26067,1.09849
1456.82678,1.10865
1455.39290,1.11561
1453.95901,1.12085
1452.52513,1.12664
1451.09124,1.13341
1449.65736,1.14034
1448.22347,1.14644
1446.78959,1.15147
1445.35571,1.15597
1443.92182,1.16045
1442.48794,1.16509
1441.05405,1.16992
1439.62017,1.17519
1438.18628,1.18125
1436.75240,1.18771
1435.31851,1.19368
1433.88463,1.19962
1432.45074,1.20667
1431.01686,1.21471
1429.58297,1.22270
1428.14909,1.22988
1426.71521,1.23607
1425.28132,1.24138
1423.84744,1.24583
1422.41355,1.24940
1420.97967,1.25176
1419.54578,1.25148
1418.11190,1.24665
1416.67801,1.23790
1415.24413,1.22736
1413.81024,1.21495
1412.37636,1.19936
1410.94247,1.18049
1409.50859,1.15969
1408.07470,1.13855
1406.64082,1.11762
1405.20694,1.09675
1403.77305,1.07706
1402.33917,1.06037
1400.90528,1.04640
1399.47140,1.03299
1398.03751,1.01867
1396.60363,1.00289
1395.16974,0.98473
1393.73586,0.96394
1392.30197,0.94245
1390.86809,0.92177
1389.43420,0.90078
1388.00032,0.87754
1386.56644,0.85240
1385.13255,0.82805
1383.69867,0.80606
1382.26478,0.78581
1380.83090,0.76631
1379.39701,0.74747
1377.96313,0.72978
1376.52924,0.71337
1375.09536,0.69772
1373.66147,0.68256
1372.22759,0.66858
1370.79370,0.65621
1369.35982,0.64461
1367.92594,0.63297
1366.49205,0.62150
1365.05817,0.61037
1363.62428,0.59890
1362.19040,0.58661
1360.75651,0.57418
1359.32263,0.56260
1357.88874,0.55196
1356.45486,0.54174
1355.02097,0.53168
1353.58709,0.52189
1352.15320,0.51253
1350.71932,0.50355
1349.28544,0.49491
1347.85155,0.48658
1346.41767,0.47859
1344.98378,0.47098
1343.54990,0.46379
1342.11601,0.45694
1340.68213,0.45010
1339.24824,0.44300
1337.81436,0.43584
1336.38047,0.42916
1334.94659,0.42324
1333.51270,0.41785
1332.07882,0.41262
1330.64493,0.40736
1329.21105,0.40207
1327.77717,0.39691
1326.34328,0.39197
1324.90940,0.38724
1323.47551,0.38270
1322.04163,0.37832
1320.60774,0.37399
1319.17386,0.36960
1317.73997,0.36522
1316.30609,0.36098
1314.87220,0.35691
1313.43832,0.35294
1312.00443,0.34903
1310.57055,0.34517
1309.13667,0.34142
1307.70278,0.33774
1306.26890,0.33407
1304.83501,0.33044
1303.40113,0.32690
1301.96724,0.32346
1300.53336,0.32014
1299.09947,0.31690
1297.66559,0.31372
1296.23170,0.31056
1294.79782,0.30746
1293.36393,0.30443
1291.93005,0.30153
1290.49617,0.29876
1289.06228,0.29611
1287.62840,0.29353
1286.19451,0.29103
1284.76063,0.28859
1283.32674,0.28617
1281.89286,0.28377
1280.45897,0.28141
1279.02509,0.27911
1277.59120,0.27691
1276.15732,0.27477
1274.72343,0.27264
1273.28955,0.27050
1271.85567,0.26835
1270.42178,0.26623
1268.98790,0.26420
1267.55401,0.26225
1266.12013,0.26031
1264.68624,0.25833
1263.25236,0.25631
1261.81847,0.25429
1260.38459,0.25228
1258.95070,0.25033
1257.51682,0.24845
1256.08293,0.24666
1254.64905,0.24494
1253.21517,0.24325
1251.78128,0.24156
1250.34740,0.23987
1248.91351,0.23821
1247.47963,0.23661
1246.04574,0.23507
1244.61186,0.23355
1243.17797,0.23202
1241.74409,0.23049
1240.31020,0.22895
1238.87632,0.22741
1237.44243,0.22586
1236.00855,0.22434
1234.57466,0.22286
1233.14078,0.22139
1231.70690,0.21989
1230.27301,0.21836
1228.83913,0.21685
1227.40524,0.21542
1225.97136,0.21404
1224.53747,0.21267
1223.10359,0.21131
1221.66970,0.20997
1220.23582,0.20867
1218.80193,0.20741
1217.36805,0.20620
1215.93416,0.20504
1214.50028,0.20394
1213.06640,0.20287
1211.63251,0.20186
1210.19863,0.20093
1208.76474,0.20010
1207.33086,0.19933
1205.89697,0.19860
1204.46309,0.19791
1203.02920,0.19727
1201.59532,0.19668
1200.16143,0.19615
1198.72755,0.19570
1197.29366,0.19532
1195.85978,0.19503
1194.42590,0.19483
1192.99201,0.19469
1191.55813,0.19463
1190.12424,0.19465
1188.69036,0.19477
1187.25647,0.19500
1185.82259,0.19530
1184.38870,0.19563
1182.95482,0.19591
1181.52093,0.19608
1180.08705,0.19612
1178.65316,0.19606
1177.21928,0.19597
1175.78540,0.19591
1174.35151,0.19587
1172.91763,0.19587
1171.48374,0.19592
1170.04986,0.19603
1168.61597,0.19625
1167.18209,0.19659
1165.74820,0.19704
1164.31432,0.19753
1162.88043,0.19795
1161.44655,0.19821
1160.01266,0.19829
1158.57878,0.19820
1157.14489,0.19796
1155.71101,0.19752
1154.27713,0.19686
1152.84324,0.19604
1151.40936,0.19515
1149.97547,0.19435
1148.54159,0.19374
1147.10770,0.19337
1145.67382,0.19317
1144.23993,0.19299
1142.80605,0.19266
1141.37216,0.19208
1139.93828,0.19120
1138.50439,0.19009
1137.07051,0.18881
1135.63663,0.18747
1134.20274,0.18615
1132.76886,0.18492
1131.33497,0.18386
1129.90109,0.18294
1128.46720,0.18206
1127.03332,0.18111
1125.59943,0.18002
1124.16555,0.17884
1122.73166,0.17763
1121.29778,0.17651
1119.86389,0.17551
1118.43001,0.17461
1116.99613,0.17377
1115.56224,0.17296
1114.12836,0.17220
1112.69447,0.17146
1111.26059,0.17071
1109.82670,0.16995
1108.39282,0.16919
1106.95893,0.16846
1105.52505,0.16778
1104.09116,0.16716
1102.65728,0.16657
1101.22339,0.16598
1099.78951,0.16540
1098.35563,0.16489
1096.92174,0.16452
1095.48786,0.16439
1094.05397,0.16463
1092.62009,0.16530
1091.18620,0.16642
1089.75232,0.16794
1088.31843,0.16979
1086.88455,0.17179
1085.45066,0.17355
1084.01678,0.17449
1082.58289,0.17422
1081.14901,0.17283
1079.71513,0.17080
1078.28124,0.16866
1076.84736,0.16673
1075.41347,0.16507
1073.97959,0.16362
1072.54570,0.16227
1071.11182,0.16095
1069.67793,0.15964
1068.24405,0.15840
1066.81016,0.15723
1065.37628,0.15614
1063.94239,0.15512
1062.50851,0.15419
1061.07462,0.15337
1059.64074,0.15267
1058.20686,0.15205
1056.77297,0.15147
1055.33909,0.15088
1053.90520,0.15028
1052.47132,0.14972
1051.03743,0.14923
1049.60355,0.14882
1048.16966,0.14845
1046.73578,0.14812
1045.30189,0.14781
1043.86801,0.14749
1042.43412,0.14711
1041.00024,0.14668
1039.56636,0.14626
1038.13247,0.14589
1036.69859,0.14558
1035.26470,0.14533
1033.83082,0.14509
1032.39693,0.14484
1030.96305,0.14453
1029.52916,0.14417
1028.09528,0.14378
1026.66139,0.14339
1025.22751,0.14306
1023.79362,0.14284
1022.35974,0.14274
1020.92586,0.14275
1019.49197,0.14283
1018.05809,0.14298
1016.62420,0.14318
1015.19032,0.14337
1013.75643,0.14343
1012.32255,0.14321
1010.88866,0.14266
1009.45478,0.14182
1008.02089,0.14081
1006.58701,0.13974
1005.15312,0.13870
1003.71924,0.13778
1002.28536,0.13699
1000.85147,0.13630
999.41759,0.13564
997.98370,0.13498
996.54982,0.13428
995.11593,0.13355
993.68205,0.13280
992.24816,0.13206
990.81428,0.13133
989.38039,0.13061
987.94651,0.12989
986.51262,0.12917
985.07874,0.12844
983.64485,0.12773
982.21097,0.12704
980.77709,0.12640
979.34320,0.12582
977.90932,0.12528
976.47543,0.12471
975.04155,0.12410
973.60766,0.12348
972.17378,0.12290
970.73989,0.12239
969.30601,0.12195
967.87212,0.12157
966.43824,0.12122
965.00435,0.12087
963.57047,0.12050
962.13659,0.12013
960.70270,0.11980
959.26882,0.11952
957.83493,0.11929
956.40105,0.11907
954.96716,0.11887
953.53328,0.11870
952.09939,0.11853
950.66551,0.11837
949.23162,0.11821
947.79774,0.11807
946.36385,0.11797
944.92997,0.11790
943.49609,0.11787
942.06220,0.11783
940.62832,0.11780
939.19443,0.11775
937.76055,0.11771
936.32666,0.11770
934.89278,0.11775
933.45889,0.11783
932.02501,0.11788
930.59112,0.11788
929.15724,0.11782
927.72335,0.11777
926.28947,0.11778
924.85559,0.11791
923.42170,0.11813
921.98782,0.11838
920.55393,0.11861
919.12005,0.11880
917.68616,0.11900
916.25228,0.11930
914.81839,0.11979
913.38451,0.12043
911.95062,0.12116
910.51674,0.12191
909.08285,0.12267
907.64897,0.12351
906.21509,0.12448
904.78120,0.12563
903.34732,0.12704
901.91343,0.12874
900.47955,0.13074
899.04566,0.13307
897.61178,0.13584
896.17789,0.13927
894.74401,0.14362
893.31012,0.14926
891.87624,0.15687
890.44235,0.16801
889.00847,0.18589
887.57458,0.21474
886.14070,0.25737
884.70682,0.31233
883.27293,0.37389
881.83905,0.43548
880.40516,0.49260
878.97128,0.54152
877.53739,0.57683
876.10351,0.59249
874.66962,0.58411
873.23574,0.55011
871.80185,0.49427
870.36797,0.42741
868.93408,0.36268
867.50020,0.30871
866.06632,0.26763
864.63243,0.23743
863.19855,0.21506
861.76466,0.19811
860.33078,0.18493
858.89689,0.17441
857.46301,0.16570
856.02912,0.15825
854.59524,0.15185
853.16135,0.14679
851.72747,0.14399
850.29358,0.14391
848.85970,0.14502
847.42582,0.14429
845.99193,0.14010
844.55805,0.13392
843.12416,0.12822
841.69028,0.12414
840.25639,0.12140
838.82251,0.11949
837.38862,0.11816
835.95474,0.11738
834.52085,0.11716
833.08697,0.11733
831.65308,0.11736
830.21920,0.11670
828.78532,0.11525
827.35143,0.11345
825.91755,0.11180
824.48366,0.11051
823.04978,0.10953
821.61589,0.10880
820.18201,0.10824
818.74812,0.10778
817.31424,0.10736
815.88035,0.10694
814.44647,0.10655
813.01258,0.10621
811.57870,0.10593
810.14481,0.10569
808.71093,0.10548
807.27705,0.10532
805.84316,0.10519
804.40928,0.10503
802.97539,0.10485
801.54151,0.10463
800.10762,0.10442
798.67374,0.10425
797.23985,0.10415
795.80597,0.10407
794.37208,0.10398
792.93820,0.10389
791.50431,0.10384
790.07043,0.10378
788.63655,0.10364
787.20266,0.10344
785.76878,0.10326
784.33489,0.10317
782.90101,0.10313
781.46712,0.10310
780.03324,0.10306
778.59935,0.10297
777.16547,0.10281
775.73158,0.10258
774.29770,0.10234
772.86381,0.10216
771.42993,0.10205
769.99605,0.10191
768.56216,0.10172
767.12828,0.10150
765.69439,0.10130
764.26051,0.10109
762.82662,0.10083
761.39274,0.10054
759.95885,0.10033
758.52497,0.10025
757.09108,0.10025
755.65720,0.10021
754.22331,0.10009
752.78943,0.09991
751.35555,0.09971
749.92166,0.09955
748.48778,0.09947
747.05389,0.09948
745.62001,0.09955
744.18612,0.09959
742.75224,0.09957
741.31835,0.09954
739.88447,0.09956
738.45058,0.09971
737.01670,0.10002
735.58281,0.10048
734.14893,0.10107
732.71504,0.10179
731.28116,0.10262
729.84728,0.10365
728.41339,0.10506
726.97951,0.10709
725.54562,0.11005
724.11174,0.11434
722.67785,0.12050
721.24397,0.12928
719.81008,0.14166
718.37620,0.15851
716.94231,0.17973
715.50843,0.20273
714.07454,0.22154
712.64066,0.22907
711.20678,0.22248
709.77289,0.20561
708.33901,0.18544
706.90512,0.16728
705.47124,0.15325
704.03735,0.14321
702.60347,0.13614
701.16958,0.13096
699.73570,0.12686
698.30181,0.12341
696.86793,0.12045
695.43404,0.11788
694.00016,0.11568
692.56628,0.11389
691.13239,0.11251
689.69851,0.11150
688.26462,0.11081
686.83074,0.11043
685.39685,0.11026
683.96297,0.11011
682.52908,0.10981
681.09520,0.10930
679.66131,0.10866
678.22743,0.10799
676.79354,0.10739
675.35966,0.10694
673.92578,0.10670
672.49189,0.10673
671.05801,0.10702
669.62412,0.10730
668.19024,0.10708
666.75635,0.10639
665.32247,0.10594
663.88858,0.10588
662.45470,0.10588
661.02081,0.10574
659.58693,0.10555
658.15304,0.10541
656.71916,0.10531
655.28528,0.10519
653.85139,0.10505
652.41751,0.10495
650.98362,0.10493
649.54974,0.10496
648.11585,0.10505
646.68197,0.10519
645.24808,0.10535
643.81420,0.10547
642.38031,0.10557
640.94643,0.10575
639.51254,0.10605
638.07866,0.10649
636.64477,0.10703
635.21089,0.10761
633.77701,0.10814
632.34312,0.10855
630.90924,0.10888
629.47535,0.10916
628.04147,0.10939
626.60758,0.10947
625.17370,0.10937
623.73981,0.10916
622.30593,0.10903
620.87204,0.10906
619.43816,0.10921
618.00427,0.10939
616.57039,0.10952
615.13651,0.10962
613.70262,0.10969
612.26874,0.10971
610.83485,0.10968
609.40097,0.10957
607.96708,0.10935
606.53320,0.10909
605.09931,0.10892
603.66543,0.10891
602.23154,0.10902
600.79766,0.10912
599.36377,0.10912
597.92989,0.10907
596.49601,0.10910
595.06212,0.10925
593.62824,0.10945
592.19435,0.10955
590.76047,0.10948
589.32658,0.10940
587.89270,0.10946
586.45881,0.10962
585.02493,0.10976
583.59104,0.10978
582.15716,0.10969
580.72327,0.10958
579.28939,0.10957
577.85551,0.10970
576.42162,0.10992
574.98774,0.11016
573.55385,0.11036
572.11997,0.11043
570.68608,0.11039
569.25220,0.11035
567.81831,0.11040
566.38443,0.11051
564.95054,0.11062
563.51666,0.11074
562.08277,0.11089
560.64889,0.11106
559.21500,0.11117
557.78112,0.11115
556.34724,0.11104
554.91335,0.11103
553.47947,0.11126
552.04558,0.11166
550.61170,0.11207
549.17781,0.11239
547.74393,0.11263
546.31004,0.11281
544.87616,0.11300
543.44227,0.11328
542.00839,0.11369
540.57450,0.11416
539.14062,0.11452
537.70674,0.11472
536.27285,0.11477
534.83897,0.11472
533.40508,0.11468
531.97120,0.11480
530.53731,0.11513
529.10343,0.11560
527.66954,0.11605
526.23566,0.11632
524.80177,0.11643
523.36789,0.11653
521.93400,0.11671
520.50012,0.11692
519.06624,0.11719
517.63235,0.11757
516.19847,0.11801
514.76458,0.11833
513.33070,0.11849
511.89681,0.11859
510.46293,0.11878
509.02904,0.11909
507.59516,0.11949
506.16127,0.11994
504.72739,0.12048
503.29350,0.12106
501.85962,0.12156
500.42574,0.12192
498.99185,0.12225
497.55797,0.12270
496.12408,0.12331
494.69020,0.12402
493.25631,0.12476
491.82243,0.12555
490.38854,0.12631
488.95466,0.12691
487.52077,0.12732
486.08689,0.12772
484.65300,0.12834
483.21912,0.12916
481.78524,0.13003
480.35135,0.13084
478.91747,0.13152
477.48358,0.13208
476.04970,0.13266
474.61581,0.13348
473.18193,0.13453
471.74804,0.13562
470.31416,0.13652
468.88027,0.13726
467.44639,0.13791
466.01250,0.13853
464.57862,0.13917
463.14473,0.13981
461.71085,0.14051
460.27697,0.14139
458.84308,0.14253
457.40920,0.14375
455.97531,0.14481
454.54143,0.14564
453.10754,0.14634
451.67366,0.14696
450.23977,0.14761
448.80589,0.14847
447.37200,0.14970
445.93812,0.15129
444.50423,0.15304
443.07035,0.15461
441.63647,0.15582
440.20258,0.15686
438.76870,0.15818
437.33481,0.16000
435.90093,0.16214
434.46704,0.16425
433.03316,0.16604
431.59927,0.16746
430.16539,0.16871
428.73150,0.17014
427.29762,0.17204
425.86373,0.17441
424.42985,0.17697
422.99597,0.17937
421.56208,0.18159
420.12820,0.18377
418.69431,0.18588
417.26043,0.18796
415.82654,0.19041
414.39266,0.19353
412.95877,0.19733
411.52489,0.20151
410.09100,0.20572
408.65712,0.20975
407.22323,0.21371
405.78935,0.21791
404.35547,0.22249
402.92158,0.22733
401.48770,0.23228
400.05381,0.23750
398.61993,0.24335
397.18604,0.24991
395.75216,0.25698
394.31827,0.26450
392.88439,0.27254
391.45050,0.28124
390.01662,0.29067
388.58273,0.30040
387.14885,0.30984
385.71496,0.31925
384.28108,0.32929
382.84720,0.33968
381.41331,0.34977
379.97943,0.35985
378.54554,0.37074
377.11166,0.38323
375.67777,0.39733
374.24389,0.41081
